coupler,coupler,$D^a [mM]$,$D^a [mM]$,$I_{islet}^a\ [pg/islet]$,$I_{islet}^a\ [pg/islet]$,$\gamma^b$,$\gamma^b$,$I_{cell}^b [pg/islet]$,$I_{cell}^b [pg/islet]$,$G^b [mM]$,$G^b [mM]$
2.697190237405017,1.069479034118772,0.5037728882200077,0.22453494507398508,2.64822801581283,0.44896294663221104,11.000197332606545,3.478689421961691,2.697190237405017,0.44753218032608366,3.205723538002311,1.874723364953262
2.9781223305689917,0.9641818369477972,0.507601502874313,0.2745094921085498,2.9634423947748036,0.5168888493242061,10.999973142934325,2.6135217459567923,2.9781223305689917,0.5180686543000502,3.228910132874003,1.4100123099397932
3.258165178823423,0.9249542834003429,0.5113791025615603,0.28541161567274875,3.246871755717771,0.5496944578365468,10.999686420652084,2.306706783506355,3.258165178823423,0.5443922331353019,3.2586847949624747,1.2473426689861877
3.5376091670249217,0.9138620020257574,0.5155317770563733,0.28908398187463036,3.5266665465401528,0.5786568526532849,10.99939618133967,2.1646358394619702,3.5376091670249217,0.5692184011674724,3.290998984598291,1.1744502292300025
3.8148712755458942,0.9186716412680782,0.5201282494609876,0.2896141888751285,3.804160143479518,0.5989646968219664,10.999125699174586,2.0925069842745434,3.8148712755458942,0.5977915087475257,3.324285050935107,1.140013715526292
4.090658007432258,0.932150465100505,0.5251643374031837,0.29119853470209994,4.080130775455041,0.6237542512236525,10.998859936702502,2.0579545037123004,4.090658007432258,0.6216404385068326,3.358232347042102,1.1262929237316268
4.365283282121032,0.9524422775251732,0.5305783692227124,0.2921312562952597,4.35484766412483,0.6448220252905913,10.99860294905283,2.0370526783891387,4.365283282121032,0.63780510206464,3.392532451864929,1.120168669838113
4.6395388954483785,0.9747338516931332,0.53642746947616,0.29173553645251893,4.629173152961866,0.6577734658142802,10.998364702816321,2.0254763847083237,4.6395388954483785,0.6594042752559008,3.4269228668264446,1.1192974794716186
4.912608599298356,0.9983493853184019,0.5426471285072139,0.2940293667497847,4.902395378712279,0.6829150872600712,10.9981413591729,2.0230506748919352,4.912608599298356,0.6840811615643627,3.461376247717144,1.1235551986447212
5.18297187031864,1.022984890238555,0.5492166390839005,0.29617860658440803,5.173030983724935,0.7029500064585784,10.997934527229063,2.0187322048262684,5.18297187031864,0.6994609469604923,3.4958179734654498,1.1267538119965796
5.453130478066141,1.0493306588478628,0.5560447087883418,0.2964148705444762,5.443188560987833,0.7171788290564868,10.99774126379446,2.024114479194009,5.453130478066141,0.7264285405694416,3.530318884864368,1.135403179740347
5.7229824220055034,1.0762820866102332,0.56319907999525,0.2984859576695747,5.713075297047186,0.737904527654352,10.997576279047971,2.018161586556115,5.7229824220055034,0.7367629884228298,3.5645979313693434,1.1376761109638451
5.990378030111625,1.1015889433857622,0.5705914609300446,0.2990577752338575,5.980680659253267,0.7515702652840098,10.997423047775596,2.0209719206200614,5.990378030111625,0.7599357945894731,3.5989767683106897,1.1448455303112726
6.257533059336711,1.1271211288265457,0.5783611939750126,0.30405843947463596,6.247925681039261,0.7800429137023893,10.997290892288037,2.021396052223015,6.257533059336711,0.7749673472243624,3.633309317900369,1.1506356699975397
6.522738678374353,1.1523730697783194,0.5862330417719287,0.3043527237033179,6.513225588123862,0.7898770371743795,10.997180570880795,2.02522549535317,6.522738678374353,0.796274987722528,3.6676156445541213,1.1583663391862078
6.78709321301847,1.1761151084162633,0.5943952848292245,0.30760078917796424,6.777701043466001,0.8126467239301299,10.997100081686666,2.0207714717725627,6.78709321301847,0.8063832916952535,3.7017411340120474,1.1613235289436703
7.049228055226488,1.1989871233328748,0.6027808143711085,0.30909695341210136,7.040041600929896,0.8245859902963422,10.997036569952218,2.0227680217962676,7.049228055226488,0.8253744331285875,3.7359644607741043,1.1679254835336335
7.311808454556306,1.2227120404904899,0.6114914056276649,0.31393569234296775,7.302635092457386,0.8497982346671127,10.997008532191265,2.0195716261509578,7.311808454556306,0.8402613209451477,3.7699493413526786,1.1715399239363635
7.573972972072124,1.2459902589886058,0.6202432218585132,0.31282921217746484,7.5647259527093755,0.8515529319908213,10.997003953031646,2.0191088761086102,7.573972972072124,0.8571883191918277,3.8039211825301864,1.1766743919876204
7.8334355992314535,1.2682119162729395,0.6292820916703767,0.3159794602470674,7.824514286054102,0.8737733355564736,10.997024836815534,2.020742036632414,7.8334355992314535,0.8740407674575672,3.837881199322605,1.182987855751519
8.090047087705221,1.2891075605802456,0.6385035186796144,0.3183774528888437,8.081411351153916,0.8879886794074097,10.997074779344382,2.0215225548799802,8.090047087705221,0.8883355841310592,3.8717843360112596,1.1887711974117567
8.346079863831557,1.3101550883640556,0.6479588000182083,0.3217224869337642,8.337535203403352,0.9054627273695209,10.997159250183298,2.0213085937897115,8.346079863831557,0.9053191901148586,3.9055281091210055,1.1939681426562778
8.599368043248644,1.3306418390204118,0.6573864514073142,0.3207557988839429,8.591014442372893,0.9089220252021639,10.997275709495238,2.0120933183829717,8.599368043248644,0.9065845988475135,3.9391568441538074,1.193740271302418
8.854484495286773,1.3507534710977929,0.6672277174899239,0.3251007885178437,8.846032573948078,0.9304457214833317,10.997412469269278,2.0139983431240296,8.854484495286773,0.9235537468681084,3.9730305090214886,1.200019898903735
9.107305314889045,1.3704966354974204,0.6771584396704567,0.3270040105425828,9.0990202193875,0.9406551820559584,10.997588699311148,2.019463101287626,9.107305314889045,0.9474531085502224,4.0067653830033505,1.208493102677175
9.358443275790759,1.390145713225261,0.6872251572861049,0.3314546453790945,9.350330053467182,0.9650016268116176,10.997802583637117,2.01836240751761,9.358443275790759,0.9564311395926866,4.040333878553832,1.2130090503951731
9.606907290670245,1.4089942986570945,0.6974645109132112,0.3338264011111912,9.599054676433317,0.9738448629638621,10.998048146774414,2.016984538644644,9.606907290670245,0.9654608751215475,4.073924738868439,1.2172809802049527
9.854020999037168,1.427616451033727,0.7078809324248934,0.3353805090030893,9.846343892355444,0.9817323264321937,10.998334920598165,2.0103815152367996,9.854020999037168,0.9731263453803439,4.107336408668095,1.2183714883423524
10.10029674303416,1.4448638912822214,0.7183465875608398,0.33746765003466217,10.09267443364432,0.9968216825827114,10.99865390297326,2.012455255258308,10.10029674303416,0.9926580527170825,4.140825881220573,1.2246712743658772
10.347034359572055,1.4632221419333682,0.7289885569968705,0.339557430656288,10.339332726087214,1.0070262632470837,10.999006262669369,2.0130117804474343,10.347034359572055,0.9972104247722899,4.174408844357167,1.2299733163251025
10.59092934569803,1.480492355157621,0.739881781372023,0.34356602208700315,10.583543359945725,1.023871106959301,10.999405142696377,2.0140389794952163,10.59092934569803,1.016812053798371,4.207786613479855,1.2356246061807137
10.830612646225552,1.4969971823741024,0.7508207762087867,0.3453792662076352,10.823655654775697,1.032201858690936,10.999841856261302,2.0168224336671208,10.830612646225552,1.0310951297671644,4.241145153821349,1.2423146460477024
11.073417028429082,1.5143555051904416,0.7619372152580536,0.34905226576300175,11.066159029229699,1.0491561686760689,11.000322909917728,2.016097402117745,11.073417028429082,1.0448890822571417,4.274276622558435,1.2468494804566346
11.311365407007502,1.5307647171670113,0.7731402232464051,0.34960871356535905,11.304549547549072,1.050235380237128,11.000836689467445,2.023319338027301,11.311365407007502,1.059591511492456,4.3076278337648,1.2562080586116142
11.551107817130573,1.5473372264681666,0.7844631999931267,0.3527314850220864,11.544131760360374,1.0679066525783842,11.001395753662898,2.021408918801492,11.551107817130573,1.0602905328277294,4.340851402387053,1.2598826347554402
11.790535429276023,1.5641119621692288,0.7960669759944254,0.3556420485448486,11.78357670310274,1.0751731077206517,11.002001104336301,2.0210820743060207,11.790535429276023,1.0761771171888597,4.373961978558108,1.2645535563821446
12.025394070161028,1.5789705056438754,0.8075780435186068,0.35653323502774187,12.01885422403632,1.0833228668513666,11.002651254302558,2.0218996427281066,12.025394070161028,1.0909513080560962,4.406982335758721,1.2699209407039491
12.261429209760458,1.5949588814138478,0.8192857615911134,0.359580319977463,12.254791414694306,1.0971153931038065,11.003343911341931,2.02052927961025,12.261429209760458,1.0952645443244784,4.44000448093189,1.2738416127617689
12.493769282031305,1.6087669374816334,0.8309407945537869,0.36124184228479134,12.48743143513417,1.1071027541243352,11.004082116711052,2.020935002286547,12.493769282031305,1.1059926718843354,4.47303308791929,1.278851375129797
12.726567446764543,1.623928966097898,0.8428799485000592,0.3669985276023595,12.720226594318957,1.1297745693683638,11.004867330103526,2.0218160066238817,12.726567446764543,1.1172481516559083,4.506015925287844,1.284150327729386
12.956315575541424,1.6377608088713052,0.8548012177230773,0.36887269853331867,12.95022507790256,1.1342834130689117,11.005700327529095,2.0251059529902045,12.956315575541424,1.1329635243630631,4.5389471265599735,1.2909792378211906
13.18673457390027,1.6514823100180422,0.8670376361973363,0.37269586460477205,13.18064421448896,1.1456716328895349,11.006581267363686,2.020364358108898,13.18673457390027,1.1302159634346574,4.5717822107934225,1.2926294013998922
13.413772989427354,1.6644913852131946,0.8791431420364136,0.3744337910082605,13.407957110754555,1.1557579261303685,11.007514514342517,2.008235393676857,13.413772989427354,1.1367643654712383,4.6042530881866055,1.289551082818505
13.641254686240746,1.6785189780218248,0.8915418287476092,0.3781011933034011,13.635433900295128,1.1668826623232678,11.008490830990153,2.0134043573780844,13.641254686240746,1.1569813931573303,4.637062296976354,1.2974571201063236
13.866902371791452,1.6923585081517176,0.9039257753902974,0.3809082954182353,13.86122160173567,1.1787540361620252,11.009517917029115,2.0185783966602275,13.866902371791452,1.1683645678517123,4.669847240895936,1.30537529091198
14.090072372538055,1.7043102692613514,0.916382727195605,0.3814769349476697,14.084630642694156,1.1784867457951436,11.010597738303847,2.0190026172583417,14.090072372538055,1.1880293722460862,4.702227907687782,1.3103038233479787
14.317280765734207,1.7176716911313485,0.929037418494479,0.3833960610514758,14.311434408512204,1.1852083312236636,11.011724163100546,2.018903620988724,14.317280765734207,1.1853501958886505,4.734780293244213,1.3147437886864435
14.53940927983187,1.7298230552792975,0.9417828290827778,0.38598350672844906,14.534038477053778,1.1958195360650488,11.012904522775099,2.018972125490048,14.53940927983187,1.1914761121690982,4.7673503017291665,1.319267118762865
14.75880966429398,1.7412058815665774,0.9545252850355275,0.390721305220284,14.753722042707999,1.2182115607769426,11.014139086098371,2.0192349355172197,14.75880966429398,1.2014926531651307,4.799858611892078,1.3239198392595237
14.979261268907937,1.7538151364245005,0.9672656886148355,0.3926127074437506,14.974006754658815,1.2223149723775717,11.01542627302251,2.0166014339203464,14.979261268907937,1.2155364273499987,4.832091280488309,1.326702428273262
15.19802936765071,1.7650141667314947,0.9801806125762254,0.39483670164509144,15.192940189520638,1.228151192227984,11.016766215610343,2.018229902954012,15.19802936765071,1.221627509729119,4.864477016135243,1.3321857687625207
15.414034901650448,1.7768063193464536,0.9931871210281101,0.39997253809865535,15.40923828189101,1.250021361056766,11.018161259361877,2.0196895193693973,15.414034901650448,1.2314236142035468,4.896801797891953,1.3375555138675432
15.625407839748085,1.7876798658254696,1.0061689520763233,0.40149973550360624,15.621066744477368,1.2517205065583679,11.019609342715084,2.0170111615766606,15.625407839748085,1.2411697080531043,4.928889826658937,1.340196042811096
15.840984316161363,1.7999044615676107,1.019249959233072,0.4027834884507223,15.836216958633381,1.2550240359223064,11.021109626610528,2.01700252949676,15.840984316161363,1.2544134622271972,4.960914284896313,1.3445675794940652
16.050167271485215,1.8099503933908831,1.0324286569162966,0.4044888994966113,16.046023771407395,1.2609975625800847,11.022666579503767,2.0199808778930586,16.050167271485215,1.2611121200850888,4.99304648590438,1.3508586358339054
16.26150637865358,1.8209376412104281,1.045669913991241,0.40717850530586325,16.257155409612032,1.2717703498914505,11.024278656078701,2.021484632333281,16.26150637865358,1.2702404478585312,5.025080057741585,1.3561699665373737
16.470372184547852,1.8316023331807039,1.059186878052286,0.41134047718991135,16.466275235077006,1.2818544391044764,11.02594673651075,2.0200649004821853,16.470372184547852,1.2741954235236674,5.057029909830067,1.3594924777573583
16.673780738761867,1.8401273910573175,1.0727544919048295,0.41586216703614337,16.670272067836457,1.2971320086895541,11.027671322679472,2.016080932667268,16.673780738761867,1.2756512590338398,5.088917904570855,1.3610449213420681
16.881873345949725,1.84974631322034,1.08613719913227,0.4165629394004606,16.877815054915718,1.2993684802035113,11.029455690967584,2.018747062362577,16.881873345949725,1.2875114524072009,5.120914746919279,1.367047534304757
17.089575134107907,1.8602791965171146,1.0997218570150553,0.41679201478843736,17.085495544239443,1.295295925782589,11.031298957745191,2.0231867155806142,17.089575134107907,1.3023294577891684,5.152839656957628,1.3742740614202325
17.29490316662509,1.8705244211065026,1.1135319810166153,0.4210684166294549,17.291094349064092,1.3114994201590946,11.033196928244829,2.0250965975125226,17.29490316662509,1.3158897498835,5.184551990416848,1.3798058420668713
17.49714910710603,1.8790639788305281,1.1273441520384764,0.4229390089120499,17.49364222387823,1.314367813639251,11.035149802795766,2.0220051485095674,17.49714910710603,1.3170943807843751,5.216134213554637,1.381877111638928
17.692605052218546,1.886679232613724,1.141174649556337,0.4246643996378317,17.689828934456287,1.3203850346621335,11.037159974477596,2.0176079934985043,17.692605052218546,1.3193506157449468,5.2476609790277235,1.382993403701593
17.890617973190633,1.8944660969433118,1.1550290320591772,0.4294453965032181,17.887592633400388,1.3414340123734534,11.039230929732666,2.0215216147845174,17.890617973190633,1.336721762894061,5.279256080354986,1.3897764481866397
18.08978662676416,1.9030592928752426,1.1690728403541886,0.4314379857237439,18.086579519101246,1.338104367014085,11.041356740394123,2.0267119189907628,18.08978662676416,1.3560049219704375,5.310687988839877,1.3974690938227323
18.292960067703277,1.913590678205438,1.1832457194483907,0.4376937517138285,18.289300298664127,1.3628244390913087,11.043540572011452,2.020648803374869,18.292960067703277,1.339331069649472,5.342064186049146,1.3973095477037294
18.496446086145603,1.9241420335202388,1.1971897482030176,0.43798270781452614,18.492580386738737,1.36059401295407,11.045791255684657,2.0181499921257617,18.496446086145603,1.3445820175818306,5.373497660438131,1.3995696641904833
18.691270318910842,1.9321719868292093,1.211139271510278,0.43903362575932964,18.68828380846613,1.366487208474336,11.048111543606977,2.0269974671105992,18.691270318910842,1.3705648705085416,5.405006437648575,1.4097185670045678
18.88430035487214,1.939978399642743,1.2253032888657052,0.4394572479787956,18.88159237818153,1.3613397702041803,11.050483070427322,2.022239667623661,18.88430035487214,1.3633398796707203,5.436230984040595,1.4104078767996473
19.0770269105876,1.948248309677345,1.239579287714639,0.44541758360892425,19.07437110921553,1.387606290022827,11.052918606168214,2.0254812511578812,19.0770269105876,1.381822699401599,5.4674841554932545,1.416648574387265
19.266112006356675,1.9555745986163582,1.2539064117560348,0.44813377545615457,19.263794624880784,1.389225900546872,11.055414921374334,2.026254941288472,19.266112006356675,1.3848990178253133,5.498677996431045,1.4211335253435522
19.45660021017088,1.9642221221993197,1.2682979664535403,0.45012320175935094,19.454145530513884,1.3926024387265887,11.057967928060341,2.023088823127117,19.45660021017088,1.3868413808037316,5.5297377122606886,1.4228332796126066
19.640579345161164,1.9719067209058552,1.2826535765656297,0.45383085761858327,19.638765215836344,1.4088548863344617,11.06058222777623,2.0154452045709537,19.640579345161164,1.3798736155624884,5.5607381857766,1.421316341939516
19.825988903685502,1.9797664711780556,1.297017299942601,0.456273363660375,19.824024775349052,1.414186160047966,11.063260205434823,2.0197984193541516,19.825988903685502,1.4081152574420135,5.591736792311297,1.4282672609602511
20.009775566812944,1.987754278530794,1.3116305139548337,0.4592374675682543,20.00797598271454,1.4172071527078152,11.06600674313049,2.01944380817672,20.009775566812944,1.3971354532804063,5.622814740473446,1.4318110743360404
20.19090526229292,1.994747674087507,1.3261387590722422,0.4594393126692161,20.18935442631886,1.4159409478818847,11.068808532691598,2.0213659851748473,20.19090526229292,1.4171372272785026,5.653706155159917,1.4370195611896888
20.375102623452133,2.0038070205511542,1.3407017695080603,0.46406106670424613,20.37320753860724,1.4368625716992178,11.071673547142908,2.0237098839292664,20.375102623452133,1.4229846999226676,5.684585661100484,1.4424892989095477
20.559164331376536,2.011216096875217,1.3552793970935717,0.46625895680621776,20.557179504917645,1.4389910205458782,11.074598522437743,2.022301956059586,20.559164331376536,1.4238225994658205,5.715365094882908,1.4452605270697672
20.738306019380023,2.017526263951703,1.3699543985660516,0.4677039791640025,20.736826590564647,1.4392996285287603,11.07757911340921,2.0204700282928734,20.738306019380023,1.4350955868184363,5.745972444465701,1.4477256544580879
20.914867389009054,2.024754262786431,1.3847488951618356,0.47012836730349095,20.91370481271642,1.444943681399657,11.08064472272256,2.0312971284843653,20.914867389009054,1.451120704098035,5.776865507821166,1.4591967403660027
21.091419193980485,2.0313445830466756,1.399453651080113,0.47160866333415946,21.090226644119877,1.450243707324741,11.083746236534644,2.023918424503429,21.091419193980485,1.4414072822686155,5.807321431773618,1.457628615530034
21.265106242617307,2.0381019822605793,1.414284201444874,0.4766773990265233,21.264192496405684,1.468486544240227,11.086918171108087,2.023826004348553,21.265106242617307,1.4530774093219045,5.837841951643299,1.4612465133485644
21.435115071906633,2.0448908165902835,1.4292224061790253,0.479952666227229,21.43459407710215,1.4717034830835227,11.090154978198827,2.0222984293938064,21.435115071906633,1.4523490973268984,5.868343774254103,1.4637862459908828
21.604701507897545,2.050083204796596,1.4441024836877738,0.4820326384998214,21.60422219419676,1.477064650023566,11.09346851968987,2.025648585716261,21.604701507897545,1.4573735109459087,5.89897802988959,1.4698178749283966
21.772085749970028,2.055230177181925,1.4591066308574463,0.48286087564916935,21.771823660591952,1.4730626490988863,11.09682878121688,2.0244193252197125,21.772085749970028,1.4665421589232672,5.92935030937485,1.472570910752013
21.93710381542181,2.0608439468220516,1.4742022366396352,0.4848875278764399,21.937101526199136,1.4780564652820047,11.100255095801684,2.0240178287676143,21.93710381542181,1.4689498929322082,5.959729051260128,1.4758747267040293
22.109038246324676,2.066254001601183,1.4893033004648888,0.48691249853099594,22.108262557501096,1.4833533952769007,11.103739986166103,2.021883184315225,22.109038246324676,1.47115191454411,5.990021040017317,1.4778920917982394
22.275264968585933,2.07046195650378,1.5046723325332654,0.4928153633333736,22.275022750409153,1.4999056409171116,11.107290551617522,2.0217642249464123,22.275264968585933,1.4792848858809817,6.020271240103589,1.4813591684044691
