coupler,coupler,$D^a [mM]$,$D^a [mM]$,$I_{islet}^a\ [pg/islet]$,$I_{islet}^a\ [pg/islet]$,$\gamma^b$,$\gamma^b$,$I_{cell}^b [pg/islet]$,$I_{cell}^b [pg/islet]$,$G^b [mM]$,$G^b [mM]$
2.6971902374049916,1.069479034118772,0.5037716775259007,0.2234588024943891,2.5502420829887402,0.4468459508697148,11.000239899631264,3.4689307637190816,2.0018572560534214,1.4769046027178563,3.2058187975421815,1.8694636448802813
2.978122330568982,0.9641818369477972,0.5073845925813377,0.2743720112666522,2.8878918172183585,0.5214015180767989,11.002010304587985,2.6192935158478137,2.1731658232372775,1.1168783527700972,3.2356127706352624,1.4126823113292655
3.2581651788234254,0.9249542834003429,0.511138240783883,0.28440328010867216,3.1847461062315126,0.5551666370729226,11.004191056056776,2.311816909243396,2.3990325665817496,1.0076465865099293,3.2732948789251743,1.2498932282853004
3.537609167024904,0.9138620020257574,0.5152723784423223,0.2851927680758977,3.4691923215056617,0.5807625106775738,11.006399680997559,2.167989835283618,2.6478828327712867,0.9778300824100256,3.31388315075465,1.176588015386072
3.8148712755458765,0.9186716412680782,0.5199192772291589,0.2894550356543554,3.7490275639377177,0.6155959660123606,11.008514259697602,2.0977342409834936,2.906810818728525,0.985598233073954,3.355516346933432,1.1439075242095975
4.090658007432228,0.932150465100505,0.5248919161969109,0.28941801007353546,4.0249435376603575,0.6368677597131017,11.010512552919085,2.064205808057042,3.168786517830979,1.0132076593047696,3.397279424665506,1.1317745541868633
4.365283282121,0.9524422775251732,0.5303257612913995,0.2914719373998441,4.3002817965095135,0.6617311067031065,11.012332610724295,2.0402028601521742,3.4321887499102632,1.0450942734878697,3.4388984209626883,1.1249783582682944
4.639538895448358,0.9747338516931332,0.5361244966785296,0.29324002272277716,4.574664445552955,0.6847755061119515,11.01400575977992,2.0347144916406297,3.695563336876652,1.0864644901403835,3.480267330503666,1.128574294539505
4.912608599298345,0.9983493853184019,0.5422901223954802,0.2944058427366552,4.8481375053636695,0.7041440883397593,11.015556835276843,2.0242183500992277,3.9570537097655007,1.1239049784715491,3.521192813343504,1.129374216377762
5.1829718703186165,1.022984890238555,0.5488552909799631,0.2965339744208685,5.119937831989317,0.7249846484355962,11.016981552311536,2.022444979481942,4.217399052374202,1.1649931481772495,3.5617837571771407,1.13503332194687
5.453130478066123,1.0493306588478628,0.555657888861881,0.29701343121941454,5.390182225634406,0.7421253301707582,11.018308765162214,2.013138852823263,4.475554072721266,1.1999626807581425,3.6019514665956422,1.1363397989900716
5.722982422005487,1.0762820866102332,0.5628029349291183,0.2998410954573496,5.660282954539535,0.7655681922598562,11.01953722332206,2.011231120848552,4.732481583102991,1.237944835035614,3.6418328081755704,1.1417540926260499
5.990378030111627,1.1015889433857622,0.570209253700954,0.30103233861925116,5.928343284336818,0.781238580243057,11.020716276740036,2.0030608803277232,4.986100463374286,1.2708241333510868,3.6812213165923366,1.1435500821483129
6.257533059336689,1.1271211288265457,0.5779048368544273,0.30423752688723393,6.195896617097308,0.8046651476141773,11.02178053290777,2.0107367353874857,5.239931759397336,1.3122272467534701,3.7205012801316313,1.1542819553437942
6.522738678374351,1.1523730697783194,0.5858030631378137,0.3069320599484731,6.461491587996574,0.8253097256956612,11.02278241110618,2.020991999388157,5.492095052310052,1.3545355532272751,3.7595020401915304,1.1664838444264671
6.787093213018474,1.1761151084162633,0.5938808630932684,0.30543162879369556,6.725852645486433,0.8292991839380205,11.023739057961986,2.0241619658963477,5.742121161187883,1.391044254181153,3.798187264474175,1.1745228420757334
7.049228055226512,1.1989871233328748,0.6023080489255294,0.30971412045152424,6.989420268616908,0.8562959217744017,11.024682985737106,2.0143128971025597,5.9888400832565925,1.4175017899883988,3.83644351961477,1.1749150984923313
7.311808454556287,1.2227120404904899,0.610926825869541,0.31179903475559834,7.2519070187852765,0.8707215012999164,11.02555514355973,2.022906633868611,6.236098202483824,1.455845759218812,3.8747149687827127,1.1859841092647034
7.5739729720721165,1.2459902589886058,0.6197145115874544,0.313817435377146,7.514001659510569,0.8873613889148105,11.026418296859546,2.018671511661161,6.480466410509782,1.4841172914999563,3.9126216156469322,1.1894660314315988
7.833435599231418,1.2682119162729395,0.6286335424036256,0.3150988386288966,7.773969319076195,0.9015587762495981,11.027258727462662,2.0174177617967417,6.723235970357932,1.5137454146452711,3.9503208303047375,1.1946458867206615
8.090047087705209,1.2891075605802456,0.6379041224166838,0.31933622386630034,8.032276080319589,0.9225555136127245,11.028068894506049,2.0199854991889543,6.965030419396289,1.5453664587358173,3.9878884641618044,1.2020135759382033
8.346079863831545,1.3101550883640556,0.6472218959716435,0.3197136183538853,8.28848288939206,0.930456363237297,11.028865538842252,2.022632549368456,7.205164967552894,1.5764283043062477,4.025254773076289,1.2093925735874906
8.599368043248644,1.3306418390204118,0.6568050586788278,0.3220283212843895,8.543134425639124,0.9454388906776559,11.029650650143497,2.0174629134779205,7.443724082710966,1.6004183963249816,4.0624339509762315,1.2119790439445446
8.854484495286796,1.3507534710977929,0.6664614216660056,0.32367252043019995,8.797592110423857,0.9595291813422511,11.030430573909216,2.0170269745123126,7.680947252991526,1.6276202250620868,4.099469357233976,1.217380255800611
9.107305314889063,1.3704966354974204,0.6763763256767005,0.32644598116746953,9.051168522473471,0.974165051829365,11.031187493311007,2.021678810644468,7.91810029272565,1.658153422505045,4.136513839522093,1.225768741574424
9.358443275790757,1.390145713225261,0.6865328546156357,0.330042912789675,9.303402236030166,0.9906332008434922,11.031976161590508,2.013163453911252,8.151562851370759,1.677591306829558,4.173134822379813,1.2261781930943088
9.606907290670241,1.4089942986570945,0.6967138984941168,0.33279755932243493,9.552705341780948,1.0075248891083037,11.032741291105168,2.012257384577852,8.385405571807512,1.702334443146689,4.209824665829178,1.231078862781025
9.854020999037163,1.427616451033727,0.7070920659958312,0.33527882323422237,9.800576392006706,1.0194873661041157,11.033507010471476,2.016213052262814,8.618476153613516,1.7308117931995413,4.246459568329435,1.2389378411719467
10.100296743034185,1.4448638912822214,0.7175036804049554,0.3370655518036507,10.047011867843423,1.0324462404945913,11.034291814465861,2.021627056752091,8.849282279410188,1.7604907270146457,4.28285214445091,1.2477483668510372
10.347034359572046,1.4632221419333682,0.7282803835266694,0.34112261426848084,10.294211227719204,1.0476340573871536,11.035084813168549,2.0237603783676255,9.078313965404652,1.7868024571678254,4.319052332949315,1.254486555777352
10.590929345698024,1.480492355157621,0.7390523058612645,0.34433982312202677,10.538836411548676,1.0649567884263316,11.035881666551234,2.0238792692039334,9.306352235257421,1.81067614144566,4.35516589513966,1.259888557736241
10.83061264622557,1.4969971823741024,0.7499004779230003,0.3455887886960722,10.779932325085937,1.0723152668513,11.036694355531488,2.024018537111337,9.532884187931796,1.834197017636624,4.391137034966955,1.265277155353805
11.073417028429091,1.5143555051904416,0.7609259678440653,0.3483831669707685,11.022222058998688,1.0862778493491452,11.03750995332799,2.0283090550424854,9.759206891891322,1.8609460014398886,4.427133537806809,1.2731952977944079
11.311365407007502,1.5307647171670113,0.7721692916545364,0.3497794085389453,11.261894950422757,1.0902421676844578,11.03834778024245,2.0242148183942255,9.98395482564114,1.8795635181643653,4.462987825287474,1.275795830185815
11.551107817130562,1.5473372264681666,0.7835408629223942,0.353998644265794,11.501696586498026,1.11107340609234,11.039214989609938,2.027272432583977,10.20668493882092,1.904845729327826,4.4986425746469285,1.2829695255020055
11.790535429276042,1.5641119621692288,0.7948736045838519,0.35586112064179926,11.740538202011502,1.1215200331377404,11.040096866684697,2.0232059764618775,10.428061081008163,1.9227501017435222,4.534168352389561,1.2855252446531178
12.025394070161035,1.5789705056438754,0.8066421699833953,0.35751524050256345,11.9776468377422,1.12124216642186,11.04100090197223,2.018586280466405,10.648054858984182,1.9396764430113842,4.56957208910316,1.2876721717977966
12.261429209760465,1.5949588814138478,0.818406007163294,0.3613744121604032,12.213939695155856,1.1424941807187285,11.041918915877377,2.0145454620800516,10.867731628665503,1.9565233572323883,4.604996873949775,1.2900818926513853
12.493769282031279,1.6087669374816334,0.8301244034449281,0.364942394179872,12.446947829069352,1.1609001333875129,11.042864525967385,2.0165299223410473,11.08616047663882,1.9791094442655308,4.640327783798485,1.2963709493120161
12.72656744676453,1.623928966097898,0.8420019089756535,0.36734019652732536,12.679724143368786,1.1683393783587146,11.043832129909758,2.0193313778088005,11.303602143808535,2.0021743028609227,4.67559301414151,1.3031517356209388
12.95631557554144,1.6377608088713052,0.8538215615932011,0.36640434020889723,12.910114409488221,1.167020766060407,11.04482080480281,2.0275027024764998,11.520542532838869,2.0303426925252204,4.710863465169169,1.3133879006028877
13.186734573900274,1.6514823100180422,0.8659450012577259,0.36887361057688905,13.14101757608835,1.1770048765048151,11.045848187308227,2.0297411045095166,11.7348647337975,2.0525607973765934,4.745852822279136,1.319820593957817
13.413772989427338,1.6644913852131946,0.8782333946950459,0.37291933808998046,13.369531445859415,1.1927687166477616,11.046896813094609,2.0275250512208136,11.948580450928974,2.0696599383722836,4.780827979933432,1.3232428846200441
13.641254686240764,1.6785189780218248,0.8904757800869627,0.37633180798760396,13.596875768048799,1.208533352410301,11.047986767027675,2.022204636744967,12.159735392272044,2.0834913863278977,4.815529160521991,1.3246569131256973
13.866902371791477,1.6923585081517176,0.9028294789211582,0.37736494422445116,13.8229866322873,1.2097646905265504,11.04909797651124,2.0230481503758635,12.370637563627193,2.10317038932747,4.8502642656733554,1.3300251754050587
14.09007237253807,1.7043102692613514,0.9154355900527361,0.3814950845638307,14.047657209650783,1.224915730211813,11.050235122801217,2.0243316824612405,12.581274674645817,2.122895447439275,4.885041874697596,1.335610984402753
14.317280765734193,1.7176716911313485,0.9280556206764768,0.3848966132046956,14.27363582233509,1.2382304347283812,11.051411645472378,2.024015243011324,12.790196499185985,2.140868316896416,4.919666998869384,1.3401574269830958
14.53940927983187,1.7298230552792975,0.9407260305572522,0.38711802108778626,14.49692658593936,1.2460890540390366,11.052621996168028,2.0251645772996367,12.997943066177712,2.160167519936904,4.9542083212442245,1.3456551816029396
14.758809664293985,1.7412058815665774,0.9533715595086851,0.38704577276629665,14.717370817610378,1.2465527638544978,11.053867757779525,2.0229480826916597,13.204227220098048,2.175588933105654,4.988623974051586,1.3488767263675934
14.979261268907907,1.7538151364245005,0.9663348003010631,0.39194116454007105,14.938308652216035,1.2648475855233787,11.05514717861581,2.0251306618221405,13.409657410380799,2.1955017985052248,5.023000950617635,1.3550062182744809
15.198029367650697,1.7650141667314947,0.9792656334631622,0.3929112122811017,15.157427285000063,1.2659790629178334,11.056462171665551,2.0292200552171566,13.613949715355796,2.217313054298946,5.057299611458072,1.3624021538573765
15.41403490165044,1.7768063193464536,0.992425307264781,0.39828266850708616,15.374891315261284,1.2868393721161762,11.057815215302332,2.020902521334108,13.81658768895903,2.2251468366073803,5.091445001083683,1.3613820490058102
15.625407839748112,1.7876798658254696,1.0056416186574118,0.4015677801877906,15.58821934181656,1.295545971407037,11.059205846792901,2.026684444721581,14.018663490717215,2.248429671541729,5.12559861431477,1.3698808481757625
15.840984316161354,1.7999044615676107,1.0187685365585535,0.40344273929905045,15.802556462167427,1.304204467634675,11.06063644707973,2.0241408516390775,14.218568694293323,2.2622745803115043,5.1595211436835,1.3727285098286346
16.050167271485197,1.8099503933908831,1.0320154930322,0.40569210580026405,16.013542884934957,1.3114739422438593,11.062101766287912,2.0255044013025123,14.418137456716632,2.2801150470914355,5.193479019507566,1.3781564874087566
16.261506378653554,1.8209376412104281,1.0452751234855489,0.406586093871906,16.224516488115967,1.3141812491670446,11.063608617313344,2.021390491460917,14.616174026046288,2.291556505351815,5.227303197467186,1.3798202704872817
16.47037218454787,1.8316023331807039,1.0586089960592204,0.4098556337692144,16.434057018692673,1.3286472620016028,11.065155468128207,2.0234733095641704,14.813596226829313,2.309822235087312,5.261128271297547,1.3856909310343406
16.67378073876184,1.8401273910573175,1.0721009304589149,0.4108775058425443,16.639672533333012,1.3264309983109663,11.066745390357376,2.020908887514397,15.008920441064387,2.3226700401861162,5.294733401929099,1.3883780696740737
16.881873345949685,1.84974631322034,1.0855743530046589,0.4154451111253591,16.84671581287188,1.348663300965121,11.068373736324775,2.01915948812393,15.203896975900221,2.3360390228006342,5.3283744488855715,1.3915359451149767
17.089575134107896,1.8602791965171146,1.099200718932342,0.4196325617590291,17.054054513363443,1.3597899077443711,11.070046369058264,2.016395736138412,15.397337296269942,2.348101193836498,5.361880798966335,1.3939853490831453
17.29490316662508,1.8705244211065026,1.1129254815362801,0.4223437953499697,17.260133094007085,1.3650891293183582,11.071760966918292,2.0213786768095576,15.59023457208711,2.3690173325763886,5.395398114604201,1.401774401054287
17.49714910710606,1.8790639788305281,1.1266281076598066,0.4237679763844547,17.463554228651283,1.3696623080321677,11.073518645038693,2.027115114253625,15.782200936902441,2.3906857384338625,5.428870302760137,1.4100747116609944
17.692605052218543,1.886679232613724,1.1403672559481424,0.4264346650009002,17.661722723296183,1.3806882394497548,11.075320940154741,2.020967002435374,15.973006872856596,2.397997692311008,5.462264537087883,1.4100269471247644
17.890617973190604,1.8944660969433118,1.1543406187915057,0.4299915776468364,17.85996354558969,1.3884854704999199,11.07717170286396,2.0277275304212568,16.163009424104995,2.42067874727367,5.495639535338888,1.4190355589093664
18.089786626764162,1.9030592928752426,1.168293987068866,0.43239337927431204,18.058596105924703,1.3958087227616252,11.079066723026848,2.0281213714311446,16.351426416614366,2.43559317914784,5.528868201066618,1.4235653998806697
18.2929600677033,1.913590678205438,1.1824128058680148,0.43447648511619585,18.260225270724806,1.3985295739254793,11.081007623708835,2.0298909942483427,16.53899345352234,2.4519632360571677,5.562063873769226,1.4290299753825795
18.496446086145603,1.9241420335202388,1.1964167120517446,0.4378872416790312,18.462651082867428,1.4156923836573356,11.082993963099636,2.0256761876137976,16.724654437178682,2.460958962784576,5.595063019913791,1.430264209715655
18.691270318910842,1.9321719868292093,1.210502856274052,0.4406296587442735,18.659998593513475,1.4228571190358121,11.085025830681928,2.0260647826112614,16.90927371192127,2.475360711086693,5.627995177789697,1.434723775025867
18.884300354872106,1.939978399642743,1.2247067916992325,0.4410251573532073,18.854626141959038,1.4179964070038809,11.08710439511947,2.0257398654516603,17.093402183014355,2.4885785428790026,5.66094734799072,1.4386055066516217
19.07702691058762,1.948248309677345,1.239063628096699,0.44435341286663027,19.048240866387115,1.4293985873909445,11.089231425990684,2.0243165452145497,17.276262590114353,2.5003273705649383,5.693803556590924,1.4416939350366442
19.266112006356686,1.9555745986163582,1.2535090501183908,0.44456502324739433,19.238871429900623,1.4233663141794695,11.09140841862126,2.0261230003787283,17.458548749592516,2.5158857179597294,5.726671565045839,1.447051774741126
19.45660021017087,1.9642221221993197,1.2679349533103308,0.4496075775176197,19.42928713306386,1.4477350541600915,11.093635321903776,2.026321091732719,17.639803432208865,2.529309939554035,5.759481289818575,1.4512406189732732
19.640579345161157,1.9719067209058552,1.2824280195151,0.454735763485541,19.615292992305452,1.463472897832703,11.095912163487878,2.0312884394646433,17.8198977043699,2.5486693086471486,5.792211582451659,1.4588679039440582
19.825988903685502,1.9797664711780556,1.2968339308124583,0.455706049675545,19.800536222443725,1.462762152245105,11.098236380042605,2.0256973335389827,17.99862183098062,2.554506950219247,5.82482479928268,1.4588449682723468
20.00977556681294,1.987754278530794,1.3111428065711361,0.4570683389213523,19.984521051912807,1.470494513201391,11.100610716263322,2.0267307165031663,18.17612794215907,2.5686446525384325,5.857346559892033,1.4636063318984653
20.190905262292958,1.994747674087507,1.3256843911742322,0.4594386054722063,20.166811090512706,1.4736402830727222,11.103035005334771,2.024236367394771,18.352861920253716,2.578022425648662,5.889844750738124,1.4657489129660397
20.375102623452076,2.0038070205511542,1.3403447540089255,0.45911433858458583,20.350397428851018,1.4648587062898586,11.105507867301942,2.025679698587235,18.528042776867792,2.59240304014832,5.922196017417413,1.4707674036950864
20.559164331376547,2.011216096875217,1.3550573808259982,0.46357487519999646,20.534317355821635,1.4846848779973068,11.108035923534496,2.027815131461594,18.703254906824547,2.607347285115977,5.9546552927783925,1.476202652395728
20.738306019380058,2.017526263951703,1.3698282368951789,0.46377663764529864,20.714940002292863,1.4775501092459005,11.110614040458973,2.029089906087345,18.87684225324343,2.6212035137856082,5.986959798504219,1.4810397897577718
20.91486738900907,2.024754262786431,1.384631802395891,0.4694287860491084,20.892963967995435,1.502499782037351,11.113242668609633,2.030912364135048,19.049287295301454,2.635646936419576,6.01918204247486,1.4862621531531592
21.091419193980457,2.0313445830466756,1.399524723141127,0.4722147082981704,21.06983030983825,1.504748035416595,11.115910350796335,2.0223123861058765,19.219085660171274,2.6364541706569837,6.051068114826218,1.4838466570193383
21.265106242617296,2.0381019822605793,1.414305815975668,0.4740722568650779,21.244388752867284,1.5116508676714977,11.118638495976427,2.0260591934156187,19.389421619591314,2.65301599851742,6.083143244271547,1.4904026508338168
21.43511507190662,2.0448908165902835,1.4294621046897964,0.4778601096666659,21.41642531638315,1.51586935158741,11.121416383452456,2.0306655786795598,19.558358379285615,2.6707005687637935,6.115093948310463,1.4976108884067985
21.604701507897545,2.050083204796596,1.4444632701744478,0.48003617609513194,21.586574611172445,1.523535496807372,11.124244909487574,2.0253078913770115,19.726170579214326,2.6750223394148596,6.146962777563806,1.4973979896483434
21.77208574997002,2.055230177181925,1.4595264966561263,0.4832458937076939,21.75482296738879,1.5330760944304727,11.12712889025447,2.020367698114932,19.893128390685593,2.679724897502112,6.178798164647039,1.4974562581251305
21.9371038154218,2.0608439468220516,1.4744077728007103,0.4876135893387288,21.920511118700883,1.5531361715695353,11.130070583231753,2.0237709928564906,20.05945134408539,2.695426257741012,6.210637268264007,1.5037009162563317
22.10903824632468,2.066254001601183,1.48955297943618,0.49036998137891497,22.090269230422173,1.5517747880867754,11.133070310144904,2.0287185528283893,20.22519501625093,2.713069512168123,6.242490106016609,1.5110726097853926
22.275264968585947,2.07046195650378,1.504551965691371,0.48920585166339675,22.257516103017277,1.5449708111456661,11.13612170104548,2.0291934529597238,20.389585673998454,2.7246661039833824,6.274226211877425,1.5151088591951518
