coupler,coupler,$D^a [mM]$,$D^a [mM]$,$I_{islet}^a\ [pg/islet]$,$I_{islet}^a\ [pg/islet]$,$\gamma^b$,$\gamma^b$,$I_{cell}^b [pg/islet]$,$I_{cell}^b [pg/islet]$,$G^b [mM]$,$G^b [mM]$
2.697190237404751,1.069479034118772,0.5037716143407738,0.22410309919537083,2.5502403725822353,0.44813475114921336,11.000659236435675,3.471114370671779,2.1964334724566057,1.268715494524509,3.2070704401950585,1.8706366050283827
2.9781223305689837,0.9641818369477972,0.507389347704233,0.27449723715764357,2.8879612450444694,0.5209437439219616,11.00123119469418,2.6205842898692726,2.9302958108963764,0.488281742784081,3.2330077988043264,1.4139684033686486
3.258165178823425,0.9249542834003429,0.5111009672393129,0.28545756050948706,3.1843712419891133,0.5598983120749857,11.001159287142414,2.3010649500584246,3.260687575064229,0.5401669200843324,3.2631789360262196,1.2447396376022521
3.5376091670249075,0.9138620020257574,0.5152572538077028,0.28810251933956826,3.469081260532305,0.5876874171085111,11.00099476840327,2.1595760816501555,3.545098684187848,0.5702187936622174,3.2959410734863637,1.1722665405934276
3.8148712755458787,0.9186716412680782,0.5198289583088068,0.2889073134044302,3.74831241719099,0.6136364138939996,11.000819497947248,2.0937186131035324,3.8229238063168416,0.6023970971782122,3.329734091557994,1.141309346744007
4.090658007432233,0.932150465100505,0.5248104439635697,0.28892687713516296,4.024817012642142,0.6354562750192401,11.000632822449537,2.057776249673295,4.098760177339361,0.6188752425231002,3.364183066097869,1.1268527712816658
4.3652832821210055,0.9524422775251732,0.5302830098801231,0.2941091351415731,4.300531375417069,0.6698712188809091,11.000460949742926,2.038839809365528,4.373356909591039,0.6437072744980658,3.398762402123527,1.1219343086406994
4.639538895448362,0.9747338516931332,0.5360596199610809,0.294344643201027,4.57447656258704,0.6864638861424482,11.000288183353934,2.035148068696747,4.647494562531708,0.6689383954043568,3.4335720858552645,1.1254880141401098
4.912608599298347,0.9983493853184019,0.5421646130955025,0.2941967480259816,4.847757030003251,0.7040277229623619,11.000137753871448,2.020606112957968,4.9205125548796005,0.6773064655437456,3.4682243868971567,1.1230561572208881
5.18297187031862,1.022984890238555,0.548654899458578,0.29726620089955025,5.119351776760076,0.7303269120782748,10.999994326915136,2.019759326338039,5.191000283909309,0.7051129244619135,3.5029527950499944,1.1282591821881451
5.453130478066126,1.0493306588478628,0.5554181345329665,0.29653133380956237,5.389548166967445,0.7409188698532079,10.999865872342522,2.0144469610274722,5.461033130061484,0.7181931353620267,3.537613519499058,1.1309236156643994
5.722982422005488,1.0762820866102332,0.5626435171195974,0.301151213819842,5.6604852795077765,0.7688377758214372,10.999747886629688,2.016028967386089,5.730756683662147,0.7406641758407695,3.5723189232663755,1.137442535034117
5.990378030111627,1.1015889433857622,0.5699616417834059,0.30165767900795454,5.927979711982648,0.7847398979583984,10.999649160441832,2.0166544285277856,5.998231699130194,0.7588976247527579,3.6069321579507245,1.1434173938752419
6.257533059336692,1.1271211288265457,0.5775208655658055,0.3037672952673018,6.194999946811438,0.8062514185936625,10.999575369141374,2.013497607031773,6.265264471502076,0.7747319163321718,3.6413732917872284,1.1472267799041989
6.522738678374352,1.1523730697783194,0.5854347982108449,0.30569789480685866,6.461104874133376,0.8209039967261446,10.99951900839839,2.013334531533452,6.530504143084014,0.7941508664813859,3.6757717870882463,1.1526920288842064
6.787093213018473,1.1761151084162633,0.5935656993979035,0.3065182645350113,6.726033815252813,0.8339623446415252,10.99947802939971,2.015678251307673,6.794797542476084,0.8115977367562637,3.710195321147343,1.1595360807256623
7.049228055226509,1.1989871233328748,0.601871825893779,0.30992902621600354,6.988874905881174,0.8594595145462571,10.999466951595787,2.0095216980319077,7.056996065047819,0.8204831975551291,3.7444242194794146,1.1614501954758307
7.311808454556289,1.2227120404904899,0.6105024042697104,0.3114044592459284,7.251649105482236,0.868864514146288,10.999474710481858,2.014236616512596,7.319393167960924,0.8468147962893166,3.7786907267910976,1.1696307277271816
7.573972972072117,1.2459902589886058,0.6193707576282146,0.3137177446031758,7.514303701679432,0.8854335227992076,10.999505021246229,2.014659950679651,7.581426487130307,0.8566807003203182,3.812931841451662,1.1752539985331327
7.833435599231422,1.2682119162729395,0.6284445934905208,0.31615174803158186,7.774810201160339,0.9019737314004054,10.999564585839128,2.0137421030352463,7.841001031219907,0.8710873699938687,3.847078400376379,1.1800781737327892
8.09004708770521,1.2891075605802456,0.6377266582311005,0.3195862252339998,8.032757998475683,0.9218288634249678,10.999648838290923,2.0148319516130937,8.097763445048031,0.8863296363832194,3.8812305531919353,1.1860369173523755
8.346079863831546,1.3101550883640556,0.6471272954843941,0.322145748284838,8.28905736812401,0.9383645403456071,10.999768219223062,2.0167532722204426,8.353717355771034,0.9068983091083926,3.915206950482189,1.1925140513846955
8.599368043248644,1.3306418390204118,0.6566535648674623,0.3249425704754954,8.543094196876142,0.9563778258433223,10.99991387394737,2.016112597260205,8.607123454264022,0.9164363497874695,3.9491601685809123,1.1973954155934226
8.854484495286794,1.3507534710977929,0.6662286645344329,0.32425204734391566,8.797165828941482,0.9604038072835979,11.000093580332182,2.0120761088068915,8.861919525793805,0.9263699060582288,3.982997916263929,1.2002182441818794
9.107305314889063,1.3704966354974204,0.676198911977199,0.3279049398057542,9.051263874177776,0.9783359277846273,11.000306424213337,2.0121302214508714,9.114791951052263,0.9459402078583782,4.0167532958424035,1.205463235637544
9.358443275790757,1.390145713225261,0.6863075240971822,0.3306939188483778,9.303283738050846,0.9928046017441569,11.000546279810184,2.0122606255393247,9.365956574514845,0.9548846250287727,4.050570011721097,1.2106654044114813
9.606907290670241,1.4089942986570945,0.6964446509969315,0.33257153149188107,9.552507812746212,1.0069199272604892,11.000820128618699,2.0158214930987643,9.614547950973702,0.972566463746199,4.084366181145199,1.2179331375712654
9.854020999037164,1.427616451033727,0.7069399124490268,0.33428136999364955,9.800908990834154,1.0122855876273347,11.001131941491918,2.0113920128321467,9.861659743214755,0.9752643715785093,4.118045994790336,1.220325468009043
10.100296743034184,1.4448638912822214,0.7175378706874196,0.3389118802974956,10.047937227883324,1.037067166232461,11.001480940998036,2.0171422812792197,10.107876241111823,1.003695669498808,4.151672866936603,1.228928505646719
10.347034359572048,1.4632221419333682,0.7281960396907795,0.3400524917742056,10.294198293701443,1.0431624371886004,11.001864473476093,2.023111623547168,10.354408322587227,1.0180999077931292,4.185280922296143,1.2376328626141437
10.590929345698024,1.480492355157621,0.738917703339375,0.3414958236132336,10.538718308142162,1.0548950112661153,11.002289216994685,2.0169388670632515,10.598420275720075,1.0151561118409722,4.218732076086252,1.2388453046570578
10.830612646225568,1.4969971823741024,0.7499191146922776,0.3451028467826729,10.780429528363259,1.0702035926100673,11.002751160007234,2.017763777975004,10.838401179516373,1.0333399481018808,4.252207554549707,1.2443279431225884
11.073417028429091,1.5143555051904416,0.7610098662306987,0.3502732711746966,11.022630107848283,1.0939292285617952,11.003257279982636,2.0213332824248846,11.080768237631112,1.0563792373829408,4.285495531210456,1.2515430770823268
11.311365407007502,1.5307647171670113,0.7720295970588971,0.35159769185337786,11.261278473274858,1.1020078784410416,11.003798238425869,2.0227632057224403,11.319014981626728,1.060678610356219,4.318848627570242,1.2573317013121208
11.551107817130564,1.5473372264681666,0.7833704385158207,0.35433547803095716,11.501156264786614,1.111172173379732,11.004385399376353,2.0199069838220067,11.558460751560025,1.0705194244669385,4.352008880669683,1.2604593369901955
11.790535429276042,1.5641119621692288,0.794837295737577,0.3562656150328167,11.740789976035833,1.1192437456928899,11.005014670231015,2.017598109917785,11.79774483777339,1.0813122976334697,4.385111720439314,1.2638762592004356
12.025394070161035,1.5789705056438754,0.8064094451688134,0.35784805131058534,11.977300893066532,1.1273395505503685,11.005686986896588,2.0208898778187554,12.03290441064831,1.1024888327766114,4.418149883527473,1.2707952071778719
12.261429209760465,1.5949588814138478,0.8181434805610366,0.36113696680545926,12.213555694065391,1.1421592092211128,11.006401259383482,2.0199627265658706,12.26870336363456,1.1054594210139284,4.451165663898124,1.2749882585817922
12.493769282031279,1.6087669374816334,0.8299294604194976,0.36173374472754466,12.44699514742225,1.1445082732042338,11.00716041266931,2.0131943640409014,12.501251552974978,1.1023727234127787,4.484154949221606,1.2754177653515533
12.72656744676453,1.623928966097898,0.8418150371103358,0.3664357152948197,12.679988119301496,1.1685037394798952,11.007967467916504,2.0137628289122365,12.733883596940224,1.1247110398636204,4.5170690052751485,1.2805173720658505
12.95631557554144,1.6377608088713052,0.8538956465282042,0.36851129682818357,12.910837757074969,1.1715895784426549,11.008819501415765,2.014557449109537,12.96377470493516,1.1334882462961042,4.54997996744742,1.285711117625537
13.186734573900274,1.6514823100180422,0.8660459065945987,0.37250124705764814,13.141424110792805,1.1900087223309934,11.009721111256766,2.0108710440967634,13.193993192280733,1.1428048019205237,4.582667606435143,1.2880448852331214
13.413772989427338,1.6644913852131946,0.8781395148484341,0.37485309488197643,13.369105270874535,1.2016350593298053,11.010665840109093,2.015856100617236,13.421215060969502,1.1545368794746749,4.615596764436344,1.2958381164331758
13.641254686240762,1.6785189780218248,0.8905288521812632,0.37750790641573384,13.597026923964977,1.2073308205252293,11.011662509219564,2.011099168066461,13.648523209194218,1.154118048328213,4.6483197181633535,1.2973731534092532
13.866902371791477,1.6923585081517176,0.9028928192008637,0.37866165123333984,13.823231301871084,1.2134364093095396,11.012708386408379,2.014414660889857,13.874200262221029,1.172390652305041,4.68110339779097,1.3040947367939613
14.090072372538069,1.7043102692613514,0.9153686595334893,0.3820779944662035,14.047426630288724,1.2291297336145068,11.013804666484416,2.0092514956256036,14.097477555525396,1.1638250151808596,4.713869624879615,1.305254590521351
14.317280765734193,1.7176716911313485,0.927988022996308,0.38490452860625907,14.273477558803823,1.2375683249251506,11.014954923321636,2.00740551872495,14.324147143787153,1.1870162103469475,4.746384011601901,1.3086318985581964
14.53940927983187,1.7298230552792975,0.9405514260369194,0.389233681078597,14.496619737073516,1.2590629436264598,11.01615493139395,2.0116876383309465,14.546586594627618,1.2061942832971,4.778891688495491,1.3159619888240712
14.758809664293985,1.7412058815665774,0.9533044698492981,0.39167683122862945,14.717344133173539,1.2629581125683706,11.017405314994633,2.0195118854367156,14.766149988368147,1.2215809390526657,4.811428798805052,1.325580751914785
14.979261268907909,1.7538151364245005,0.966152226827648,0.39378568713086287,14.937974386178452,1.2696687989972273,11.01870811412579,2.0276560120041265,14.98637060014192,1.2312425025856593,4.844010463842906,1.3353915252385051
15.198029367650697,1.7650141667314947,0.9789540345726078,0.39393369317731214,15.157028857742137,1.2715530551309167,11.020064357451108,2.0210955326543325,15.205138339561293,1.2259445507698172,4.876279300144899,1.3355225604136594
15.41403490165044,1.7768063193464536,0.9919579101494035,0.39790120346036767,15.374317994137966,1.2879682201291094,11.02147486301125,2.0266076371622113,15.421287221888122,1.2508958631640599,4.90861962454891,1.3436080098832255
15.625407839748112,1.7876798658254696,1.0050857479597421,0.40029119607044644,15.587750105150587,1.2928822165471443,11.02293794511629,2.0198296446127078,15.632993536907307,1.2407533321686264,4.940803445420145,1.3434843832042391
15.840984316161354,1.7999044615676107,1.0183805900493368,0.40437868889446116,15.802749585016196,1.3065086460902913,11.024454960025963,2.0194360776322657,15.848042346421874,1.2614223457834037,4.972892281422039,1.3476082115829617
16.050167271485197,1.8099503933908831,1.0315457845904656,0.40465514074283576,16.013455616035273,1.307471016763873,11.026027578834777,2.021956712083158,16.05767481980442,1.2689796903889903,5.00506350271349,1.3536080539190618
16.261506378653554,1.8209376412104281,1.0448604427919708,0.40722138563556504,16.224641153589836,1.3175722726676633,11.027655449794631,2.0230097344357607,16.268700688279356,1.2767129599097713,5.03715785593638,1.3586191583910754
16.47037218454787,1.8316023331807039,1.0584011480090854,0.4117318262106464,16.434539131159998,1.3313278707469434,11.029337643491658,2.0161247914369107,16.477641606945614,1.273249958796346,5.069084857926149,1.3582623630272324
16.67378073876184,1.8401273910573175,1.071923191957367,0.41430426201582166,16.640011100797146,1.3389891111534544,11.031079530148237,2.016272273580706,16.681474236874084,1.2823444398157655,5.101150342666857,1.362576162501413
16.881873345949685,1.84974631322034,1.085311993012481,0.41625415033099267,16.846614774550222,1.3497535679870165,11.032876309091808,2.013221361095631,16.888993396095522,1.2894847929295181,5.133040630628849,1.364739705514527
17.089575134107896,1.8602791965171146,1.0989367781456645,0.42312393745697496,17.054062852391656,1.3753070219768244,11.034736512082965,2.0210866486652805,17.096541355700566,1.3064719786467929,5.165139569865298,1.3742561183678206
17.29490316662508,1.8705244211065026,1.1123647219389254,0.42215816656555605,17.259374729250727,1.3674815240550882,11.03664834618701,2.022608998053026,17.30194454844873,1.322807992290361,5.196856268689886,1.3795430521590692
17.49714910710606,1.8790639788305281,1.1260183096211165,0.42200728565009926,17.46310729481454,1.36337402859033,11.0386158441487,2.0165274613513184,17.504367106323492,1.3138693376170418,5.228508228776196,1.3795407556825268
17.692605052218543,1.886679232613724,1.1398921073970807,0.42423980776002945,17.661868199797063,1.3694891779427043,11.040647916457655,2.0250246826701033,17.700394954903423,1.3391395132169004,5.260331534614287,1.3894856071243618
17.890617973190604,1.8944660969433118,1.1539849374813107,0.43050504067051093,17.860369976315813,1.3911140349648081,11.042727014773766,2.0201902304139874,17.89805747901893,1.3396259852245649,5.291762206561748,1.3903141174157336
18.089786626764162,1.9030592928752426,1.1678886371893544,0.4304953568128286,18.058625320647376,1.3875687158309336,11.044868325800852,2.0216538857794157,18.096940279103134,1.349009360784893,5.323307077811699,1.395392671654035
18.292960067703305,1.913590678205438,1.181744017812228,0.4343765592341914,18.259752503478637,1.4084138717709478,11.047068147540456,2.017964201827152,18.299540947284683,1.3467267507270761,5.354763120731235,1.3968776233130635
18.496446086145603,1.9241420335202388,1.1958542897149496,0.43927300164640026,18.462455556007935,1.4206081468315417,11.049338943926688,2.0206471738727707,18.50280597962225,1.3532891117985082,5.386397886395419,1.4027170298267104
18.691270318910842,1.9321719868292093,1.2099574723985904,0.4433369857770504,18.65996443712823,1.43348621263197,11.051670182255481,2.024569642582022,18.69834144975583,1.3710658994445464,5.417879012558118,1.409471192467343
18.884300354872106,1.939978399642743,1.2239554438512563,0.4419976265522781,18.85416804440464,1.42466134415039,11.054061098693408,2.028362581873135,18.891482987932854,1.3817704912493516,5.44928307292738,1.4161282692278854
19.07702691058762,1.948248309677345,1.2382503283429802,0.446116549903414,19.04788752945543,1.4386665945171646,11.056512831980118,2.031905936112785,19.084113001342104,1.3900551351840955,5.480642020543737,1.4225924588093732
19.266112006356686,1.9555745986163582,1.2525521834334827,0.4470528473169217,19.23840450948198,1.4372260086527011,11.05902144735153,2.030786458904027,19.273416406736725,1.39281848532147,5.511858687292386,1.4257765441833736
19.45660021017087,1.9642221221993197,1.2668491237220576,0.4468947610873205,19.428756524882832,1.4354002310153673,11.06158699552299,2.028227177890432,19.46364720352974,1.399175001124575,5.5429512829879215,1.4279233162072853
19.640579345161157,1.9719067209058552,1.2813882779229528,0.4519778919631247,19.615288605176207,1.453600832901491,11.064214329306017,2.028341940879412,19.648120279290676,1.4092872881719456,5.574009054023972,1.4319141686341792
19.825988903685502,1.9797664711780556,1.2958487011774353,0.4552893007759141,19.800678896448606,1.4640205190852913,11.06690342317769,2.0286067864517556,19.833298162544267,1.4140565381983103,5.605045909814178,1.4359720047297502
20.00977556681294,1.987754278530794,1.310326056412234,0.45615955272705544,19.98484743523654,1.4627807505220618,11.069654832334244,2.0279984452253372,20.01708927327454,1.4171721580336871,5.636045512930407,1.439381810884802
20.190905262292958,1.994747674087507,1.3249987131102086,0.4605669693841021,20.167286543552336,1.476841462282385,11.072469976266467,2.025376709227685,20.198352208704264,1.4156109438362845,5.667022596885606,1.4413232494843635
20.375102623452076,2.0038070205511542,1.3395150294852238,0.4647858846218554,20.35033140638293,1.4944472349772386,11.075335140052335,2.017315157020743,20.382115068077837,1.4179856494033956,5.697749595935867,1.439392220383907
20.559164331376547,2.011216096875217,1.3540983620304257,0.4664631078995835,20.53382543768586,1.4944692321134454,11.078270932606577,2.0211084522035714,20.566013179721498,1.4401798849855914,5.728558218719554,1.4458788450302653
20.738306019380058,2.017526263951703,1.3684283031198354,0.4641016069503254,20.71397083744828,1.4876603233289567,11.081262125177435,2.019055367605384,20.745493683424467,1.4407344404763882,5.7592030673678,1.448161580951379
20.91486738900907,2.024754262786431,1.3833695097419072,0.46725865362061336,20.892685007134993,1.4892021803320787,11.084322820610623,2.0223949030301984,20.922217549503657,1.4516655095185764,5.789908397419875,1.4542707248240685
21.09141919398046,2.0313445830466756,1.3983655261095909,0.4737088018930946,21.070059315777915,1.5124767077994044,11.087445066990472,2.0226186538528586,21.098650459896355,1.4523342038667426,5.820549625809652,1.4581196903082048
21.265106242617296,2.0381019822605793,1.4131367261369077,0.47365573348283785,21.244415818391566,1.5084589151478838,11.090630024046932,2.0230784897211658,21.272480702863184,1.4588077805660238,5.851133855026106,1.4621255634913077
21.43511507190662,2.0448908165902835,1.4282331123174952,0.47940292011122404,21.416395959034926,1.5259530520471254,11.09388312942358,2.025947711934908,21.442741323951577,1.4661014223989166,5.881738429809773,1.4678492773500307
21.604701507897545,2.050083204796596,1.4430635859058645,0.48101067233801226,21.58620334457748,1.531586648135815,11.097189191277776,2.023541848187027,21.612258920871643,1.4671721006016472,5.912172796897055,1.4697495912555976
21.77208574997002,2.055230177181925,1.4580255890769513,0.4823559635785752,21.754453335334198,1.5312874581863956,11.100560463317448,2.025176067432899,21.779725479122046,1.4783507657508284,5.942598122739815,1.4745580076653932
21.9371038154218,2.0608439468220516,1.4730866344870637,0.4848947227201763,21.920671518930217,1.5374492687406833,11.103990814606293,2.0223097355326654,21.94485481965404,1.4745368177922764,5.9729413378766685,1.4760538257298146
22.10903824632468,2.066254001601183,1.4882042453908624,0.4892211771992271,22.090442617484175,1.5514879486924293,11.107477438647196,2.023655796568849,22.115969247914443,1.4928035532214137,6.00317027192664,1.4806315626609272
22.275264968585947,2.07046195650378,1.5032753779761925,0.4925686029236001,22.25765413471418,1.5613329061571288,11.11104957388938,2.024314069560944,22.282557071518227,1.4801924644563458,6.033597229624197,1.4846072613746746
