coupler,coupler,$D^a [mM]$,$D^a [mM]$,$I_{islet}^a\ [pg/islet]$,$I_{islet}^a\ [pg/islet]$,$\gamma^b$,$\gamma^b$,$I_{cell}^b [pg/islet]$,$I_{cell}^b [pg/islet]$,$G^b [mM]$,$G^b [mM]$
2.697190237404853,1.069479034118772,0.5037713183975473,0.22618300193304153,2.501232440901402,0.4523261509029008,11.000484945093605,3.4836627814049126,2.0609440357266253,1.4210377529864877,3.206588321014838,1.8773888751876868
2.978122330568979,0.9641818369477972,0.507226569623943,0.2735909251239183,2.8276161505051114,0.5240941968786371,11.002045241811956,2.6277807353226055,2.835970026199516,0.53462639437234,3.235644913795554,1.417762339609655
3.258165178823426,0.9249542834003429,0.5108228972732942,0.2838240008822095,3.122680314955734,0.5652054616451592,11.002320031826947,2.311380696209689,3.2432324411289954,0.5410183927449284,3.2671186343903136,1.2504848127444852
3.5376091670249,0.9138620020257574,0.5148818863267756,0.2884104685419442,3.4080533359554313,0.6008395110743809,11.002334691575633,2.1697027022002002,3.5484848154022086,0.5799524109355542,3.3004585716653767,1.1781525332530536
3.814871275545871,0.9186716412680782,0.5193397956922706,0.28639245421397175,3.687319428168453,0.6188268074564974,11.002293837730514,2.094919007547193,3.8310566426638353,0.6063482439225142,3.3346172674574426,1.142474863894017
4.090658007432221,0.932150465100505,0.5243838115235251,0.28885678369003753,3.966575621652396,0.6457922211384757,11.002213777231853,2.0622141368898563,4.107921350295202,0.6319030130670924,3.3694523043780253,1.1299072064268234
4.365283282120991,0.9524422775251732,0.5297986786842732,0.2924537031387785,4.242608724533056,0.6777284374483983,11.002150406717474,2.037486365648906,4.382651934340137,0.6530489969547456,3.404194001397512,1.1219131532854867
4.639538895448353,0.9747338516931332,0.5355169996945291,0.29297264763161585,4.516192976097558,0.6985294673413351,11.002072260482516,2.023774345323824,4.65671104628379,0.670307038509927,3.439174229301962,1.1199416956576271
4.912608599298342,0.9983493853184019,0.5415751432947293,0.2956311015122395,4.7891037996788155,0.7260827770270817,11.001986701094436,2.026309733994535,4.929700769326481,0.6987679683461632,3.474332851412939,1.1270230916888635
5.182971870318611,1.022984890238555,0.5479704552658641,0.2962757509168358,5.060267835919261,0.7432989730111933,11.001921634265388,2.025196694009008,5.200250746129085,0.719591388911628,3.5092678461666886,1.1321577777967489
5.453130478066118,1.0493306588478628,0.5546510450937963,0.2954625555607336,5.330618292395983,0.7567469985652633,11.001874019332508,2.017943194020028,5.470165288684447,0.7340396992961149,3.5440129211274383,1.1338192082801348
5.722982422005481,1.0762820866102332,0.5617183449493719,0.2995481647639777,5.601466578630937,0.7853392918625371,11.001826522463228,2.0110784378478432,5.739749838305906,0.7454748474724893,3.578846720039612,1.1355602474997
5.990378030111628,1.1015889433857622,0.568986229372643,0.30179119931514736,5.869365249541756,0.8065827406426125,11.001799780659162,2.0143297530241004,6.007289507138319,0.7768985995503466,3.6135277944611968,1.1430891080989454
6.257533059336684,1.1271211288265457,0.5766069238504101,0.30317635209929944,6.137414932459665,0.8209215309460001,11.001777215714625,2.019271577185066,6.274198327888296,0.7949821332941688,3.6482618808220546,1.1514977675696634
6.522738678374351,1.1523730697783194,0.584540179528698,0.3075251220208544,6.404613588287222,0.8474008190634632,11.00178686335977,2.012525152383921,6.539422548685167,0.8056623595385493,3.682680260366092,1.1532290828145946
6.7870932130184745,1.1761151084162633,0.5925544266829962,0.308648303959652,6.668723760660182,0.8639091681362595,11.001794765162524,2.0177700801328324,6.803697321652347,0.8266400290011598,3.7173420001797695,1.1617251225162544
7.049228055226517,1.1989871233328748,0.6009434131999785,0.3122129920593072,6.932730083294775,0.8847295147310266,11.001827931675459,2.019539242934571,7.0659514881480625,0.8422783902146244,3.751877619491118,1.1682352002194536
7.311808454556281,1.2227120404904899,0.609366224248404,0.30959779280229205,7.194480377463475,0.8861386281143325,11.001885889235785,2.0201799439338544,7.328163225509201,0.8584558715355823,3.7863163589167197,1.1740786670730836
7.573972972072115,1.2459902589886058,0.6182061402734191,0.31309785555239705,7.458028443695047,0.9081867224567103,11.00196611682736,2.018824879608233,7.590038821266202,0.8705524959319627,3.8207151881389088,1.1787050650327133
7.833435599231408,1.2682119162729395,0.6272176797389482,0.3162618160520796,7.718962403592776,0.9280275556511752,11.002081670901465,2.0171060841350332,7.849678127224055,0.8911845026218397,3.8548635478851057,1.1831472840821198
8.090047087705205,1.2891075605802456,0.6363555159153906,0.3188683125444637,7.976991884785416,0.9463302513668327,11.002210926692833,2.019929308503972,8.106610217005716,0.9067764241023447,3.8891152011990506,1.1901492829552769
8.346079863831541,1.3101550883640556,0.6457020221176965,0.3206589199450773,8.233905710558412,0.9591079333853039,11.002363202476573,2.0210541394328856,8.362537114859999,0.9166599151004431,3.923395957661403,1.1960955969166636
8.599368043248644,1.3306418390204118,0.6552368731218778,0.32406264430050674,8.488993597766607,0.9792930550922782,11.002549578295305,2.0210541080097526,8.616065397988798,0.9322195989175375,3.9575402909610333,1.2013944725558159
8.854484495286801,1.3507534710977929,0.6649656606442003,0.32707375252874227,8.743956373481478,0.995483993879376,11.00276770449024,2.0221425334359058,8.870554566654528,0.9491527327485861,3.9915976496120305,1.2073252890221218
9.107305314889068,1.3704966354974204,0.674873250670075,0.32903987793738154,8.997819707073182,1.0073494151125073,11.003013397924615,2.0202671516493984,9.12341762763135,0.9563510354391185,4.025651460917796,1.2114061718335127
9.358443275790757,1.390145713225261,0.6848099458156636,0.32904233123035104,9.249430369303951,1.0152647556783732,11.003298759950225,2.0159346793121458,9.374605608476042,0.9700201902434892,4.059502911762013,1.2140147813498212
9.60690729067024,1.4089942986570945,0.6950859584380987,0.33138061793014456,9.500377149396467,1.0275201547512873,11.003615285648074,2.0134007393335316,9.623323777588764,0.9837954687528297,4.09330386520477,1.2176423351475327
9.854020999037163,1.427616451033727,0.7053521178176196,0.3339141792424836,9.748367033745227,1.045808244800043,11.003958494585456,2.013293579257927,9.870480637594175,0.993401157300485,4.1272028649553345,1.222647851626254
10.10029674303419,1.4448638912822214,0.7159973119084628,0.3379698258674713,9.996429818089435,1.0609000306363923,11.00434170754883,2.0149198071611627,10.116637253778036,1.01217474780782,4.160964649550467,1.2287372190445514
10.347034359572044,1.4632221419333682,0.7267288724656653,0.34103543506166206,10.243586340583237,1.0758273446118987,11.004763500221573,2.013125185718323,10.362943112139499,1.0226720474105575,4.194592814976092,1.2327047657353842
10.590929345698022,1.480492355157621,0.7375532960499129,0.340347043737628,10.488699645362512,1.075178518253064,11.00522014604302,2.0177080396872857,10.607040405065455,1.0440070765607083,4.228199739476925,1.2405588457545067
10.830612646225577,1.4969971823741024,0.748600187555936,0.346212842689096,10.731639711320641,1.1045262585191666,11.00571506445218,2.0152632716227528,10.847308315841156,1.0482750018387301,4.261689305716433,1.24403395305389
11.073417028429095,1.5143555051904416,0.7597130525437024,0.3480166609212929,10.973629255846634,1.1117991919305135,11.006252490704847,2.0139335383469836,11.089306283605435,1.0647890303310412,4.295024883918125,1.2481911204580678
11.311365407007502,1.5307647171670113,0.7709898969379899,0.34995370295956185,11.21382394126804,1.121177860208012,11.006824891767147,2.0102982590956278,11.327786089850466,1.067638908819788,4.328391840301789,1.2508094838239925
11.551107817130559,1.5473372264681666,0.7822149627862445,0.3524692061622915,11.452789133213535,1.1382961505566789,11.007437115875852,2.0104722286707837,11.567000811725428,1.08051734574002,4.361783444461241,1.2557664712012782
11.790535429276048,1.5641119621692288,0.7937499728934408,0.35526702698559365,11.69254328797118,1.1472660407917625,11.008094003762135,2.0110674472365955,11.806085156296461,1.0951906124268425,4.395064243381208,1.2609928149415308
12.025394070161036,1.5789705056438754,0.8052816077566977,0.35640382754598393,11.929291789610525,1.1549588764471206,11.008789309567925,2.0166397114707815,12.04152152317968,1.1097750499982475,4.428436207188423,1.2692975638504347
12.261429209760468,1.5949588814138478,0.8170167320513897,0.360553124780279,12.16597018802908,1.173478830999385,11.009531515070469,2.0165500730321675,12.277133761962752,1.1165153401355694,4.46167008322366,1.2740390013649516
12.493769282031268,1.6087669374816334,0.8287732598681151,0.3632135109639332,12.399754895861006,1.1857257271153263,11.010319714023447,2.01914289144532,12.509849815523394,1.1350099455630638,4.494789017291134,1.2804869487903097
12.726567446764525,1.623928966097898,0.8408968538591118,0.36657251731392493,12.634141550796976,1.1939735552732356,11.011152378711772,2.018129889947933,12.742329295276281,1.140874217508583,4.5278364730166025,1.2845934312812213
12.956315575541447,1.6377608088713052,0.8527792143872935,0.3665919983119413,12.864674381150762,1.2004089103437543,11.012029646216444,2.0210505350057866,12.972357004799816,1.155555871887854,4.560889774487272,1.291175596801295
13.186734573900276,1.6514823100180422,0.8649442974501296,0.3721583279877839,13.09566883069064,1.2242901000723723,11.012954929915768,2.0246038656750027,13.202396307355329,1.172149876514776,4.593820745217405,1.2981746465735913
13.413772989427331,1.6644913852131946,0.8771341691373186,0.37464820477158667,13.323981671281842,1.2329249342180657,11.013927613166544,2.0210407015268537,13.429740907369068,1.1743353058451926,4.626604017530225,1.3005607607189333
13.641254686240769,1.6785189780218248,0.889417020415624,0.3754037685236544,13.551820641780909,1.235119820802086,11.014946929434284,2.020666747537478,13.656925949085807,1.1844515525616102,4.659416302636181,1.30494101816969
13.866902371791488,1.6923585081517176,0.9019638978475979,0.37750962114748965,13.779315502247638,1.2412557281672594,11.016016181153992,2.019536859455533,13.882590710171996,1.1964500131875746,4.692091687069142,1.3088275064835335
14.090072372538076,1.7043102692613514,0.9145662121252082,0.3838256177712916,14.004440847941444,1.2700597813606729,11.017132802529236,2.0232855940565155,14.105992731992755,1.2083062359806105,4.72486387180496,1.3158183539559338
14.317280765734186,1.7176716911313485,0.927119217581259,0.3837719460850312,14.229515257694125,1.267206098034265,11.01830159187071,2.020571312012438,14.332129038156376,1.2122428469822932,4.7574673665281475,1.3186009855856275
14.53940927983187,1.7298230552792975,0.9397979575780848,0.3868037953871666,14.453355753703825,1.281466073412444,11.019521622660589,2.014158147303044,14.554789612438357,1.2140141685148387,4.789971341199675,1.3189145346721032
14.758809664293986,1.7412058815665774,0.9526550707230308,0.38694382309277325,14.675056119995991,1.2773880180817023,11.02079293960928,2.0178345556158956,14.774590081672498,1.2325224988391053,4.822583900432514,1.3257974834852644
14.979261268907894,1.7538151364245005,0.9656632384399505,0.39133068154526646,14.89655891609446,1.296450150515542,11.022117144056065,2.0180300322031286,14.994617986085775,1.2342163191414979,4.855189866723725,1.3303572529168344
15.198029367650692,1.7650141667314947,0.978739045221522,0.39479802858967733,15.116281958798206,1.3084516911748774,11.02349544831275,2.017334971969861,15.213351913841493,1.249717141353638,4.887573261272097,1.3343700524183872
15.414034901650439,1.7768063193464536,0.9916641788840247,0.3965299287364941,15.33302178667883,1.3185818147338253,11.024925704024911,2.016617136939246,15.429617700562318,1.2589539142727868,4.919888488258259,1.3383197202831596
15.625407839748123,1.7876798658254696,1.0048990126211992,0.40045347488416827,15.547682018407096,1.3298338996959624,11.026408452464045,2.012072459030845,15.641703071735554,1.2577923853531454,4.952162842970961,1.3396569135542504
15.84098431616135,1.7999044615676107,1.01806168257663,0.4021403425595311,15.762172150264561,1.3364913916506076,11.027946064474344,2.013041798752958,15.85630062714262,1.2734056835203702,4.984422971820869,1.3446503678468533
16.050167271485186,1.8099503933908831,1.0313343414797795,0.4060267124638791,15.973947275244322,1.3520300035841804,11.029539736551028,2.01005114426651,16.066306190770597,1.2660807753871124,5.01676920669653,1.3469090384995803
16.261506378653547,1.8209376412104281,1.0446865949849136,0.40800321711555937,16.185277936395575,1.3564821486771523,11.031191190375367,2.016860276316581,16.27711049541775,1.2935238507218698,5.049074032097307,1.3557940928139374
16.470372184547877,1.8316023331807039,1.0581982447492195,0.4114897729362519,16.39567341031842,1.367853566212578,11.03289561303657,2.014464336092543,16.48605098979469,1.2955823492137792,5.081141517540812,1.358486145556003
16.67378073876183,1.8401273910573175,1.0718563373179477,0.4127084157618582,16.6026791114917,1.3669473677205168,11.03465453221234,2.0184716850989997,16.69030919521634,1.3167618940251027,5.113147101005543,1.3654852986868644
16.88187334594967,1.84974631322034,1.085443301739175,0.41736650691992155,16.809782167126716,1.3900106898990598,11.036471189525406,2.0250301642421986,16.89734245708517,1.325027454294543,5.145259169145109,1.3741511055795421
17.08957513410789,1.8602791965171146,1.0989864467509356,0.4184034027491516,17.016268198312826,1.3922891906008779,11.038342248130265,2.024172524567087,17.104616511419287,1.329420907649544,5.177147261552035,1.3778018362926687
17.294903166625073,1.8705244211065026,1.1128067762638105,0.42387195855278537,17.222876723983397,1.410781725073414,11.04027405989119,2.0280647077682947,17.310077304107285,1.340022936926448,5.209116657524704,1.3846377905887604
17.497149107106075,1.8790639788305281,1.126632277391721,0.4249084503838102,17.426877119240817,1.4096551356287959,11.04226011307871,2.017295114383859,17.512680731678138,1.3255542914170628,5.240855783003408,1.38142243498918
17.69260505221854,1.886679232613724,1.1404361770131435,0.4265977990112605,17.626270025305946,1.4175530886386412,11.044302840028603,2.0152397475050874,17.709326536562457,1.348352388921686,5.272489998633234,1.3841731878005414
17.89061797319059,1.8944660969433118,1.1541672949661594,0.43119675300393734,17.824210492142072,1.4399486185481576,11.046407273298033,2.021900683839154,17.906780243555094,1.3649445827938431,5.304258268041403,1.392854208093255
18.089786626764162,1.9030592928752426,1.1680771904003617,0.43145962229878526,18.02273701676147,1.4324076180744156,11.04857088621206,2.0257910587393346,18.105317559824513,1.369381034615406,5.335992180669474,1.399613468949883
18.292960067703316,1.913590678205438,1.182118450950394,0.43636088042479676,18.224066717097603,1.4515816263593038,11.050786406580793,2.025372878216017,18.307255368600767,1.382735637411039,5.3674339245223575,1.4034381539127985
18.496446086145603,1.9241420335202388,1.196122096587224,0.4356979278787586,18.425841880984247,1.4443951356593936,11.053066311459606,2.0198154328021967,18.510155579584755,1.3697380573192115,5.398954065625154,1.4035768258682315
18.691270318910842,1.9321719868292093,1.2104030356914028,0.4378690111967044,18.624915049078044,1.4487326585884557,11.055409468851105,2.0211859514033703,18.706366429030016,1.3885410266557299,5.430426839893062,1.4085416201552845
18.884300354872092,1.939978399642743,1.2246856518329232,0.44330951239399913,18.820661692986526,1.471580512092522,11.057809262147638,2.0199366546101074,18.89974671622408,1.3958701078487377,5.461752165264484,1.411668814141867
19.077026910587627,1.948248309677345,1.2389443304676093,0.442373733835905,19.01422376126184,1.461829510421105,11.060277585811798,2.027023357571311,19.09234679386001,1.4108378643975663,5.493216264642471,1.4205783701401062
19.26611200635669,1.9555745986163582,1.253303037574943,0.4469776438207787,19.205751021167398,1.4817341143472167,11.062803360620338,2.0318010309133685,19.281859356075415,1.422297250623444,5.524537680231474,1.4278969982700045
19.456600210170865,1.9642221221993197,1.2677622498310424,0.4514040092351828,19.39653367428499,1.4945152142511857,11.065387028988706,2.0301253026108705,19.4718682388445,1.4196737501558743,5.555751706773451,1.4306466325930018
19.640579345161157,1.9719067209058552,1.2819954096399286,0.45442444135141985,19.58282823465484,1.5086702262140292,11.068026503998682,2.0186540794767436,19.656800164319204,1.4062734752628279,5.586806499694821,1.4264320397573629
19.825988903685502,1.9797664711780556,1.296458468982511,0.4557292946670176,19.768918967917536,1.5055332414981255,11.070738548867503,2.0266743754301255,19.841870496222832,1.439723931710869,5.61801969058087,1.435980474365132
20.00977556681294,1.987754278530794,1.3108524050610664,0.45847577348604296,19.95354455890986,1.5176901939455243,11.073506420475367,2.029089822998161,20.025613417926575,1.4445531352488474,5.649081809431469,1.4415599998229878
20.190905262292976,1.994747674087507,1.3255104239809405,0.46004010733320794,20.136780582749278,1.5149204746626408,11.076334290003345,2.0289609696384954,20.207004175342448,1.4467534326362606,5.680075710943077,1.4453004769621949
20.37510262345205,2.0038070205511542,1.3401244987392167,0.46341750209419513,20.32030359515148,1.5287387964510655,11.079227094211753,2.029516807446248,20.390367503984432,1.4509248598953581,5.7110716247981514,1.4494945478560095
20.55916433137655,2.011216096875217,1.3547496285215723,0.46504580088795433,20.50368272621518,1.5318755977717886,11.082179411895892,2.0298260418273615,20.57401286605041,1.460442413940584,5.741954046697288,1.4535139843868066
20.738306019380072,2.017526263951703,1.3695852318795756,0.467433170573427,20.685308058095057,1.5350042112236557,11.085197873327854,2.0332146280825922,20.753799941921173,1.471494332331356,5.772830253355135,1.4597146963970038
20.914867389009082,2.024754262786431,1.3842611275176895,0.4669676325600296,20.86369855044038,1.5332726237663785,11.088272123639348,2.0323226364384652,20.93073566006745,1.47506882171506,5.803554849608163,1.4628326327259629
21.091419193980446,2.0313445830466756,1.3992512434001716,0.47050263010610477,21.041773798409867,1.541756602170225,11.09140241268716,2.0289339923307312,21.10709123950631,1.4785957997544368,5.834147209646267,1.4641234386250266
21.265106242617293,2.0381019822605793,1.414227704733141,0.47489380944775617,21.21734627748702,1.5569394596440373,11.094604835919705,2.0272347447302947,21.281063431753257,1.4768370800265413,5.864826553934398,1.4665574664689593
21.435115071906612,2.0448908165902835,1.4293445733811707,0.47891941686751055,21.390135634861384,1.565605742877462,11.097868714569632,2.023692812418355,21.451612848103764,1.4772746426592454,5.895429788352128,1.4676404561515977
21.60470150789755,2.050083204796596,1.4442342751612387,0.4795036015410983,21.56046173539289,1.567918646490838,11.101194167104138,2.0234323689206577,21.62112794426024,1.489003746019038,5.925970255847871,1.471095777708237
21.77208574997002,2.055230177181925,1.4593939405788519,0.48286241458837037,21.72972176987971,1.5749302766299191,11.10457965243947,2.02701664419514,21.78866951874562,1.5056595746260317,5.956436919215943,1.4773449993436798
21.937103815421796,2.0608439468220516,1.4742784846608503,0.48341529582868237,21.895856845610204,1.57919883960198,11.108024956482454,2.027090075636321,21.953924115319776,1.5053119391412877,5.986838970861589,1.4809976348434917
22.109038246324683,2.066254001601183,1.4892009315289803,0.4868567227221672,22.064621093823515,1.5928002336554794,11.111533727612853,2.0266464099201507,22.124240148683736,1.5074930018879968,6.017211908720776,1.4842417275481852
22.275264968585955,2.07046195650378,1.5043042110936276,0.4906692122961095,22.232219761964167,1.6006516160347424,11.115109680424482,2.0290518922829803,22.291036675665623,1.517245249453179,6.047566336015981,1.4895589987375724
