coupler,coupler,$D^a [mM]$,$D^a [mM]$,$I_{islet}^a\ [pg/islet]$,$I_{islet}^a\ [pg/islet]$,$\gamma^b$,$\gamma^b$,$I_{cell}^b [pg/islet]$,$I_{cell}^b [pg/islet]$,$G^b [mM]$,$G^b [mM]$
2.6971902374049916,1.069479034118772,0.5037728128295224,0.2232685011903435,2.6482276405008385,0.44642945372210097,11.000240210123964,3.4705567628996894,2.0018596574821945,1.4775931446580903,3.20582633646215,1.8703373722101029
2.978122330568989,0.9641818369477972,0.5077008706909607,0.27651824920330165,2.9635639336439565,0.5206620168808554,11.002016169162067,2.6078655977839555,2.1714479691975597,1.112006999603794,3.2353790779550886,1.4065288690525244
3.2581651788234236,0.9249542834003429,0.5114383763154952,0.28524227142478376,3.246839292653382,0.5485239418114998,11.004199591590636,2.298904816994115,2.3965091528486218,1.0018989938829488,3.2729500198291355,1.2429093849262023
3.5376091670249186,0.9138620020257574,0.51564086394559,0.28693083795797225,3.5267204983812084,0.5698787147377299,11.006390753870793,2.1597971948299195,2.6457674198646055,0.9738197454055774,3.3135584059484016,1.172114223308873
3.814871275545891,0.9186716412680782,0.5203017027646961,0.28839330769872673,3.8042608207027144,0.5950678753311927,11.008471410015115,2.09831475174285,2.905922414037828,0.985434398615154,3.3552960401582794,1.1441771360839148
4.090658007432253,0.932150465100505,0.525391467317856,0.28990116348797434,4.080195469840954,0.6188088961612886,11.010448789889551,2.0609847733602544,3.1687759884245303,1.0108096805832039,3.397141303819302,1.1298883128603305
4.365283282121027,0.9524422775251732,0.5308759635651291,0.29224807312047196,4.354924283907186,0.6443040453107088,11.012289396983,2.03746826139761,3.432120003711227,1.0433434833820374,3.438788484283461,1.1234054798104198
4.639538895448376,0.9747338516931332,0.5366481119055396,0.29199129647544925,4.629129253402395,0.6610804833891318,11.01394388929514,2.0324287622369503,3.6965084347980532,1.084676211729266,3.480265014823538,1.127203190125716
4.912608599298355,0.9983493853184019,0.5428400788914411,0.29434980795860755,4.902349681823686,0.68453094486154,11.015517635740094,2.022308296403173,3.9576889090899363,1.1227829985371511,3.52118685708784,1.1282781278534022
5.182971870318637,1.022984890238555,0.54938395116223,0.29551186529817164,5.173002047033352,0.7006649519163557,11.016938168365433,2.020949172291186,4.218339030237426,1.1640514129590387,3.5618122365033416,1.134161956725914
5.4531304780661385,1.0493306588478628,0.5562708114116865,0.2992322319325183,5.443224608916833,0.7270935497299247,11.018251553465575,2.0202462601900386,4.477300897573858,1.2043217271567626,3.6020690618984506,1.140357409681057
5.722982422005503,1.0762820866102332,0.5633020560265959,0.296841035175854,5.7129835206796065,0.7309452156061598,11.019500072575726,2.0151507808878244,4.733232431423986,1.24076224105586,3.6418455813527446,1.1440303174887396
5.990378030111625,1.1015889433857622,0.5707615750388066,0.30087140526514405,5.980726686764167,0.7592186869934573,11.02064398404782,2.0155321777568562,4.988278849747569,1.278857366063971,3.681375793542984,1.1506792684433753
6.257533059336709,1.1271211288265457,0.5784270120700216,0.30337086384778994,6.2478534583914005,0.7775079196555376,11.021712588377595,2.013007083209888,5.241894983129458,1.313568710648442,3.720636632853149,1.1555369373675826
6.522738678374352,1.1523730697783194,0.5863342647854892,0.30462971620758994,6.513240891774519,0.7909697205448671,11.022745417151954,2.013410479325317,5.49287580190747,1.3495126357908014,3.759525414409565,1.1620881659093227
6.78709321301847,1.1761151084162633,0.5945611503513314,0.30664127443738404,6.777732075084059,0.8061409300274304,11.023705350816364,2.0207362414264707,5.742974741638056,1.3889083962263546,3.798225724907901,1.1725528453779288
7.049228055226491,1.1989871233328748,0.6030505912599906,0.31066308118622693,7.0401183871531545,0.8295869012913673,11.024624858695933,2.02199426070274,5.9910714146566075,1.4230561233861512,3.836635952999875,1.1794096147370519
7.311808454556305,1.2227120404904899,0.6116729278287862,0.3121578263080417,7.302595242105297,0.8419959757282118,11.02550839790663,2.0224010418528593,6.237623463546143,1.4556122475307163,3.874827845007524,1.185692153803287
7.573972972072123,1.2459902589886058,0.6204730286483259,0.3131998012933804,7.564760830504875,0.854535220392035,11.026345177943218,2.0295193419775623,6.483773331658233,1.4921254074923775,3.9129461150719003,1.1958481886936367
7.83343559923145,1.2682119162729395,0.6295579228451224,0.3157625215140751,7.8245256713315285,0.8706957713573847,11.027186926397903,2.023236503154994,6.726730467150592,1.5181018617562763,3.950679370856414,1.1980649885175025
8.09004708770522,1.2891075605802456,0.6388101227598704,0.319941053642215,8.081438181985163,0.8942093360807094,11.028011207494906,2.0161034571339504,6.968078918253055,1.542404097253905,3.9882110816859435,1.1996730094844383
8.346079863831557,1.3101550883640556,0.6482142263679828,0.32119522299885717,8.33750409026482,0.9017181224111551,11.028809976680535,2.017664846605804,7.208658355427168,1.5725836952707009,4.025647032406171,1.2063963496718995
8.599368043248644,1.3306418390204118,0.6577848969030987,0.32165236218445165,8.591082386385963,0.9094851158718715,11.029592653840579,2.0207395636588745,7.447976316702396,1.6032793578587832,4.062933137296833,1.2139750915016714
8.854484495286776,1.3507534710977929,0.6676256432938954,0.32438487285594825,8.846047822586469,0.9253416539177143,11.030386027169078,2.0162043283302458,7.684403999057056,1.6274014393971874,4.099877983988209,1.216950489926447
9.107305314889047,1.3704966354974204,0.6776048448342823,0.32864359442366153,9.099054714638184,0.9477508189085657,11.031152481629006,2.0165016457682916,7.9207795311505365,1.6543863534488377,4.136825507767952,1.2227077601029674
9.358443275790759,1.390145713225261,0.6877035352090765,0.3314655011195268,9.35033144197172,0.9609791398807888,11.031918159942368,2.0228710562604246,8.155921061413189,1.6860735859137541,4.173650687123542,1.2321611548887599
9.606907290670245,1.4089942986570945,0.6979217820839521,0.33308967073312035,9.599064156848135,0.970639361685378,11.032677344736017,2.023607892668879,8.39018048490428,1.7123057767693513,4.210394803447319,1.238085813499548
9.854020999037168,1.427616451033727,0.7083001483752497,0.3357528928834999,9.846332909584856,0.9855670920895228,11.033463366938717,2.0201820214225967,8.621628372794914,1.7348340977259389,4.246831310053799,1.2414902733123225
10.100296743034162,1.4448638912822214,0.7188726507803057,0.3396377501419713,10.092696896563421,1.0030305709670104,11.03424141852436,2.0271948316793824,8.852690408654263,1.7657947120734552,4.283250884457893,1.251268326871618
10.347034359572055,1.4632221419333682,0.7294326259244845,0.34052978459474414,10.339302571177074,1.0097685535522882,11.035022911516284,2.025571159483982,9.082647417478203,1.7884966633749593,4.3195698567370435,1.2556087688809814
10.59092934569803,1.480492355157621,0.7403425198652341,0.34500482568340635,10.583544043869425,1.0281734479415654,11.03582906195191,2.0202929434792307,9.310455938626484,1.8076480793717469,4.355669036274594,1.2576696155106135
10.830612646225552,1.4969971823741024,0.7512522634898128,0.346114087689028,10.823642810160571,1.0336433767168285,11.036635675234693,2.0266671416405084,9.53811128888021,1.836798140743693,4.391797111911454,1.26695358014694
11.073417028429082,1.5143555051904416,0.7622428893383018,0.3476417312567746,11.06611476306802,1.0443744723062847,11.037466681309748,2.0278573225273213,9.76344123478394,1.8610267936713876,4.427676364797146,1.2730007931351994
11.311365407007502,1.5307647171670113,0.7734675405031406,0.34931801246735333,11.304552539249048,1.0505776636547346,11.038319472651617,2.01779188909295,9.986590371561324,1.8742517253985984,4.463319340501848,1.27187925592211
11.551107817130573,1.5473372264681666,0.7848307344618592,0.3525020266039309,11.544138159571874,1.0659654446198386,11.03917304543835,2.0179708275542634,10.210239061475402,1.8963030530544518,4.499083619654086,1.2771108600767662
11.790535429276025,1.5641119621692288,0.7963003193182975,0.3557237832786798,11.783536708861515,1.0795858670679408,11.040054665637784,2.016114791406571,10.432041657304666,1.9162395542499226,4.534670946248163,1.2810546097221873
12.025394070161028,1.5789705056438754,0.8077577074283284,0.35698175486111683,12.018812938439327,1.0867777879580085,11.040960083007265,2.0166386820610938,10.652213488753338,1.9381821100861027,4.570102540898309,1.286503044628993
12.261429209760458,1.5949588814138478,0.819544955655497,0.3611375278484992,12.254802326079965,1.1015049775098034,11.041874380157656,2.018262178061578,10.872329375082849,1.9605483488620046,4.6055860272891564,1.2925475002975348
12.493769282031304,1.6087669374816334,0.8313716538780739,0.3624328469522046,12.487487172190448,1.1049321464674624,11.042821781975977,2.0153801923555434,11.09048454067539,1.9783464862950122,4.640880452518282,1.2957023755507953
12.726567446764543,1.623928966097898,0.8432591509750663,0.36639663055791805,12.720238387884374,1.1257788807438998,11.043794636404073,2.013523953448588,11.307394469958382,1.9967999530593457,4.676075477059053,1.2994781837495653
12.956315575541424,1.6377608088713052,0.8552215127339039,0.36873960469351785,12.95024572305973,1.1332885996063933,11.044784370572996,2.0205648196695094,11.52426294467069,2.0237502038028903,4.711335476178177,1.308962357524255
13.18673457390027,1.6514823100180422,0.8672762525788329,0.37374174330669957,13.180591742337484,1.155969271938701,11.04580638948977,2.0267397402393708,11.739428385233083,2.0497895934449097,4.746440341322575,1.3179161547027076
13.413772989427354,1.6644913852131946,0.8794276209307054,0.3734241327966349,13.407936059738574,1.1473882159951618,11.04686328901883,2.024366973553179,11.952298227013582,2.0669249117099397,4.7813027156863805,1.3212874830982622
13.641254686240748,1.6785189780218248,0.8918164262775217,0.3801177500796769,13.635447383711178,1.1787555524148996,11.047944535720116,2.0213316727646276,12.164492128606328,2.082849887019511,4.81614353910009,1.324132615648895
13.866902371791452,1.6923585081517176,0.9039985369958942,0.3803608117012525,13.8611400998225,1.178049781568273,11.049057032212218,2.0216611923361327,12.375651373395664,2.1020054822689644,4.850920680587417,1.3291624681526086
14.090072372538055,1.7043102692613514,0.9163898225968068,0.3827396766732288,14.08459860986785,1.1876281189385591,11.050204491374478,2.0169766318282503,12.585052984893215,2.1156449573432483,4.885530566121163,1.3308555336534824
14.317280765734207,1.7176716911313485,0.9290179327011128,0.3843780950634374,14.311403749694811,1.1885113161705274,11.051383591964676,2.0158361521614987,12.793329744220685,2.1327101735189147,4.920059776331247,1.3348530519559023
14.53940927983187,1.7298230552792975,0.9416347811312067,0.38627843418950614,14.53399858854649,1.19916974130901,11.052590992701111,2.020078742321223,13.001118470982385,2.155172679339232,4.954598358839149,1.3423757530894884
14.75880966429398,1.7412058815665774,0.95439886696549,0.3887760055405234,14.753715564098242,1.2075035912621261,11.05383692249552,2.017962414440284,13.20687527928767,2.170668919344244,4.988931484090265,1.3456581091851556
14.979261268907937,1.7538151364245005,0.9673686454630238,0.390896999056085,14.974086158466678,1.210819035073214,11.05511069987025,2.0193339780308914,13.41284095125731,2.1894429655153855,5.023376578192049,1.3511736103669936
15.19802936765071,1.7650141667314947,0.9803599624609672,0.39403115260246635,15.19299055801913,1.225048820511108,11.05642786391613,2.0205378826764573,13.616842445460954,2.2080705862776373,5.0576331872059805,1.3566207701946238
15.414034901650448,1.7768063193464536,0.9933459138314522,0.3980873582064138,15.409239453660497,1.242643018211244,11.057777749820255,2.0193190310482043,13.820459940890991,2.2236005447219207,5.091919216120636,1.3603508064442233
15.625407839748087,1.7876798658254696,1.006363225393083,0.39948336106859567,15.621080393175404,1.2440631361064924,11.059172579557785,2.0167128663728935,14.021869479998662,2.2375920344958518,5.125978786221801,1.3631786294558812
15.840984316161363,1.7999044615676107,1.0194952907228225,0.40191880301584204,15.836235511759506,1.2528807158340027,11.060601530194264,2.0229226874095767,14.222825871222154,2.26112813453677,5.160055878517744,1.3719399443900344
16.050167271485215,1.8099503933908831,1.0327760817032179,0.4071102125761495,16.046048581745247,1.2725604424526409,11.062068447351237,2.0225909366992907,14.4226189012136,2.2770478828015794,5.194051046776796,1.3762075738750512
16.26150637865358,1.8209376412104281,1.0460513550321833,0.4068139831695136,16.257154073121967,1.2638430472246638,11.0635768008176,2.0178459488446068,14.621312559752687,2.287704291532132,5.2279783636877015,1.3774174989884365
16.470372184547855,1.8316023331807039,1.0594263452608317,0.41048811683611386,16.46626029235776,1.2821178790143348,11.065129741232639,2.0195687734624235,14.818134396898687,2.3057416888342943,5.261723205276894,1.3830948954073892
16.673780738761867,1.8401273910573175,1.0728106052399877,0.4111328592566851,16.67021571288065,1.2803890003331473,11.066717665247024,2.023167356621186,15.015151232889803,2.325459506071612,5.295582418393604,1.3899554928107383
16.88187334594972,1.84974631322034,1.0865049999285998,0.4171363014561286,16.87789090997505,1.3019633742834493,11.068350962743118,2.018195695991423,15.210571035497196,2.3351404032358083,5.329303030713817,1.390897681706727
17.089575134107907,1.8602791965171146,1.1000852085253363,0.4184022683220745,17.085498496292594,1.302180031198299,11.07002936969225,2.025296605658611,15.404716833263462,2.3588725477299928,5.3629300733951855,1.4002229044164767
17.29490316662509,1.8705244211065026,1.1137314392120414,0.4200580035431229,17.291048453848454,1.3080073738491023,11.071747533687473,2.028478971789961,15.598214022029463,2.37770327920276,5.396549766771749,1.4067674528984269
17.49714910710603,1.8790639788305281,1.127587176293409,0.427449382995344,17.493647386519708,1.3373390670767396,11.073511151640021,2.033258530122907,15.790552680163985,2.3983460711724907,5.430094229023495,1.41443019187542
17.692605052218546,1.886679232613724,1.1412713687017182,0.4276427142136013,17.689768898665907,1.3310115403163918,11.075319503486842,2.0350756457039254,15.981138488170776,2.415412502619254,5.463469705087518,1.4200372476219263
17.89061797319063,1.8944660969433118,1.1550067099672896,0.430251735808047,17.887554490877477,1.3433282291585236,11.077171501863512,2.035517623064986,16.170740871981224,2.4305891828533093,5.496789594193323,1.4246367612072932
18.08978662676416,1.9030592928752426,1.1689052576948014,0.4311771104370894,18.086544233458973,1.3395841253060283,11.079069337553072,2.0315065557132215,16.359505656803243,2.440137464112443,5.5300795642855745,1.4260501528969507
18.292960067703277,1.913590678205438,1.1829391786752859,0.4344041456119749,18.28925891444281,1.3511411201208543,11.081014887850033,2.031793048778542,16.54672177371366,2.4548325347153614,5.563232387382561,1.4305076171488256
18.496446086145603,1.9241420335202388,1.1969965930286715,0.43676989568688923,18.49260773950132,1.3575220066163622,11.083005402658907,2.0303981478688415,16.73305821175211,2.467205995101641,5.596344151863362,1.433720466596414
18.691270318910842,1.9321719868292093,1.211072255651188,0.43834950987483495,18.688313817445867,1.3617321545813452,11.08504100050743,2.0290222280635906,16.917307256269325,2.4795666286689886,5.629228736031224,1.4369671863985156
18.88430035487214,1.939978399642743,1.2252571244985457,0.4430437883197718,18.88160785753169,1.3798401044953021,11.087123956123305,2.0309278502251895,17.1020622561452,2.4954805405681455,5.6622865282655965,1.4424207327796108
19.0770269105876,1.948248309677345,1.239508459819929,0.4432549933135208,19.074347407123174,1.370963804890072,11.089255935021699,2.0298783586420193,17.28507977163314,2.5077563083855674,5.695178583756354,1.4457956039777755
19.26611200635668,1.9555745986163582,1.2539750834187553,0.44729710088596053,19.263848132813138,1.384971720870851,11.09143254308426,2.0288117511528974,17.46593427116316,2.5199849145923214,5.727827851469459,1.4491824075437083
19.45660021017088,1.9642221221993197,1.2682721154221375,0.4479532418474642,19.45413557098875,1.3861675877655506,11.093658758761514,2.028509281177949,17.64715428614869,2.5326830755861516,5.7606300070282055,1.4529864293859853
19.640579345161164,1.9719067209058552,1.282749460410402,0.44901094638206074,19.638788111269935,1.3854371810580854,11.09593593068771,2.027424171283853,17.827094819812753,2.5443467411936678,5.793336926316482,1.4562329195041965
19.825988903685502,1.9797664711780556,1.2973965500689486,0.4557586348679726,19.824106362784892,1.4121437568088149,11.098261027568945,2.024084062619345,18.005432710285106,2.5530705336854846,5.825891084923807,1.4578508222048971
20.009775566812944,1.987754278530794,1.312058524393316,0.45841531330447305,20.007994140010563,1.412441787092257,11.100638543564044,2.0268946756644755,18.183467448628484,2.5693397498788153,5.85849849425697,1.4638572742432665
20.19090526229292,1.994747674087507,1.3265160442007584,0.4634214716211582,20.18935017241127,1.4383619049401646,11.103063653101161,2.021024245406451,18.35982060637328,2.574439809667569,5.890939528443939,1.4635611093944423
20.375102623452133,2.0038070205511542,1.3410522303991408,0.46225384775148587,20.373174163807327,1.4212451935538548,11.105539955153269,2.0178652263791386,18.535220277357062,2.582812662016279,5.923329517165402,1.4651964783172697
20.559164331376536,2.011216096875217,1.3557984050313556,0.46311413079517166,20.557233877045565,1.4215107523739716,11.108067751197055,2.0171160691730576,18.709740970576007,2.5941008273121104,5.955680083612517,1.4685515784349215
20.738306019380023,2.017526263951703,1.3705401947871474,0.4660231621435108,20.736862695122273,1.4345320275259699,11.110645788638527,2.021077382136807,18.883107145796924,2.611391071148365,5.987946342090671,1.475344733574778
20.914867389009054,2.024754262786431,1.3854630339273304,0.4679736714680819,20.91372949614353,1.4333243119569576,11.113275884376941,2.025882207946438,19.055723542259795,2.6296132719479277,6.020193763517796,1.4827230913163434
21.091419193980485,2.0313445830466756,1.4004035371559096,0.4743973672791479,21.090283071531136,1.4604874446211116,11.115953549354193,2.029532782863884,19.226702799983084,2.6463165613211292,6.052277658563534,1.4892731546945484
21.265106242617307,2.0381019822605793,1.4151872204806648,0.4754103036923143,21.264182281742233,1.4580702004653703,11.118690737949946,2.0320461828696574,19.39777845734195,2.6612277894631475,6.084485223310652,1.494900569363554
21.435115071906633,2.0448908165902835,1.4302795533193213,0.47911113590026666,21.434632172317958,1.4647829565544868,11.121473184948966,2.025927685952819,19.566543881875333,2.664841056773509,6.116420904105986,1.494200324077929
21.604701507897545,2.050083204796596,1.4451602201192504,0.48260629454202303,21.604232371798176,1.480817473522382,11.124309271564831,2.0262223621398694,19.734485406945716,2.676736538901499,6.14832381772075,1.4982076557714388
21.772085749970028,2.055230177181925,1.4598684668832338,0.4809143108138493,21.7717622345219,1.4709559463900141,11.127200403308445,2.0278053618629297,19.901759539390856,2.6901492205246247,6.180221345267196,1.5031263970561712
21.93710381542181,2.0608439468220516,1.4749709323623523,0.4855692756325764,21.937084414996686,1.484429532882143,11.130143991889549,2.0266313375284843,20.06789802634417,2.699773573139387,6.212037044459527,1.5059759640794699
22.109038246324676,2.066254001601183,1.490159419481053,0.48730175975859347,22.108263629660104,1.481005885033855,11.133134927443392,2.0263924843967573,20.232392467029204,2.710604284040248,6.24368173295911,1.5095333381526967
22.275264968585933,2.07046195650378,1.5051986998314377,0.48700338044083663,22.274970401471585,1.4803066675699295,11.136196957777798,2.033418751693812,20.397698017745377,2.730854623601863,6.275575412671645,1.5184153676687877
