coupler,coupler,$D^a [mM]$,$D^a [mM]$,$I_{islet}^a\ [pg/islet]$,$I_{islet}^a\ [pg/islet]$,$\gamma^b$,$\gamma^b$,$I_{cell}^b [pg/islet]$,$I_{cell}^b [pg/islet]$,$G^b [mM]$,$G^b [mM]$
2.697190237405017,1.069479034118772,0.5037713317676691,0.22350238194637745,2.5012329935496993,0.4469644327883588,11.00019731061706,3.4786032241250373,2.697190237405017,0.4476599150294812,3.2057228997550444,1.8746771793784442
2.9781223305689815,0.9641818369477972,0.5072785105516876,0.27524117535785264,2.8287065050654214,0.5289082507471524,10.999964544694897,2.631652014639789,2.9781223305689815,0.5213355774378617,3.2292385214034223,1.4197811482769405
3.258165178823426,0.9249542834003429,0.5108667797941573,0.2843463200367989,3.122835723611188,0.5658124053467182,10.999692724949119,2.30917333704247,3.258165178823426,0.5442336840366697,3.258699628198976,1.2487295963675298
3.5376091670249,0.9138620020257574,0.5148847775701465,0.2873845389634828,3.407485928975016,0.5989333029309117,10.999408958879203,2.1659015401926394,3.5376091670249,0.5735298070123501,3.2908463706422975,1.1751983112883613
3.814871275545872,0.9186716412680782,0.519383650342407,0.2867754045126702,3.687635250808451,0.6193664985636306,10.999119545921882,2.0987895809498083,3.814871275545872,0.5959235178510832,3.324427597505606,1.1433931747429937
4.09065800743222,0.932150465100505,0.5242863691041161,0.28735111730395985,3.9648552420508714,0.645479580699587,10.998863468598712,2.055574143206236,4.09065800743222,0.6171621997866448,3.358244774021511,1.124978942478668
4.365283282120993,0.9524422775251732,0.5297011725031414,0.29086359914745,4.241437719451368,0.6741153039733683,10.99860221494484,2.04071260567987,4.365283282120993,0.6416438985438973,3.392641468022145,1.1221780356033164
4.639538895448353,0.9747338516931332,0.5354596833732009,0.2936536585170974,4.516089054392188,0.7010533433659102,10.998365218481696,2.0301912263411968,4.639538895448353,0.6621669976230871,3.4270238404402096,1.1219193840067962
4.912608599298342,0.9983493853184019,0.5415163683011883,0.2930496700889436,4.788948962402059,0.7166603924954846,10.99813800774279,2.026940092515568,4.912608599298342,0.6828657924512297,3.461544833204872,1.1257050324898827
5.182971870318611,1.022984890238555,0.548073030112771,0.2956984222232468,5.06216324059425,0.7389038522332543,10.997932917636629,2.0201504406799877,5.182971870318611,0.6977880178154111,3.4959831760908244,1.127541528803027
5.453130478066118,1.0493306588478628,0.5548501820333799,0.2984355646878229,5.332784679260798,0.7651125342030357,10.997744270854575,2.0202839992855957,5.453130478066118,0.7216791489378451,3.5304272747883414,1.1332554702810242
5.722982422005482,1.0762820866102332,0.5618172728031695,0.2998227853402904,5.601492718411886,0.7861538093778239,10.997574136740107,2.0197403602654362,5.722982422005482,0.7391800110885867,3.5648237656200013,1.1385661995591396
5.990378030111628,1.1015889433857622,0.5691953387764268,0.3022311789463126,5.870360932375889,0.8048075193056782,10.997429579883669,2.0156598123309575,5.990378030111628,0.7551908163848996,3.5990641857427987,1.14186201641786
6.257533059336683,1.1271211288265457,0.5767639059291265,0.30402212584846106,6.137714181742621,0.8247504540882863,10.99729962311625,2.017088152883146,6.257533059336683,0.7755952429371249,3.6333539701906443,1.1482229449993728
6.522738678374351,1.1523730697783194,0.5846042275511714,0.3046638143963648,6.403832526458011,0.8379917373706656,10.997196923577771,2.017408230225834,6.522738678374351,0.7948404265443746,3.667488654949395,1.1539554466746722
6.7870932130184745,1.1761151084162633,0.5927245030210847,0.3073906689487627,6.669331542350535,0.8591131488364766,10.997113768964278,2.0209410946254645,6.7870932130184745,0.8150268962549311,3.701610043425553,1.161486081548636
7.049228055226517,1.1989871233328748,0.6010293015688916,0.30934308713748476,6.932466464213305,0.8768381298928141,10.997055960265975,2.0139729784013,7.049228055226517,0.8182626326913381,3.7356391554112336,1.162883628370149
7.311808454556282,1.2227120404904899,0.6097016462348226,0.311395295834554,7.196222451660765,0.8900227839315191,10.997023109419894,2.0125478967798127,7.311808454556282,0.8379777180702771,3.7696582122343383,1.1674554460216493
7.573972972072115,1.2459902589886058,0.6184963815897923,0.31289779296916953,7.458637183643274,0.9061924001977695,10.997010618543543,2.015500112088664,7.573972972072115,0.8547013444040737,3.8037679242742324,1.1745159298920282
7.833435599231409,1.2682119162729395,0.6275358224065432,0.3175677002328218,7.719556891135459,0.9326138794038192,10.997031765013869,2.0132105621937995,7.833435599231409,0.8658249550710325,3.837738029391208,1.1785133860224952
8.090047087705207,1.2891075605802456,0.6366468359578261,0.3188138472732035,7.97701219456003,0.9451498009680276,10.99707770004705,2.01698668405509,8.090047087705207,0.8853109678412583,3.871767154500614,1.186034001870346
8.346079863831541,1.3101550883640556,0.6459444482203925,0.31938934629945787,8.233640065426622,0.9548238876291494,10.997161439118535,2.0115613190081834,8.346079863831541,0.8920914870065489,3.905581209380949,1.1881225226201189
8.599368043248644,1.3306418390204118,0.6554881092457495,0.3218996762054161,8.488940903183448,0.9712524779158791,10.997266249614146,2.01860626686763,8.599368043248644,0.9156101810946172,3.9395813171619154,1.197530235062948
8.854484495286801,1.3507534710977929,0.6652337415238803,0.3254353811565827,8.744136721910515,0.9904111809974738,10.997414594300665,2.0125925828923563,8.854484495286801,0.920150038344979,3.9732711501467297,1.1991938505497415
9.10730531488907,1.3704966354974204,0.6751550925468691,0.327251673858212,8.997981957268799,1.0011826219842415,10.997594417288715,2.018018925153374,9.10730531488907,0.9492505148829145,4.006939032644975,1.2076739653866022
9.358443275790757,1.390145713225261,0.6853399118102865,0.32920013956194494,9.251092580179112,1.0115608364353892,10.997805230545596,2.013136133053165,9.358443275790757,0.9464166082821315,4.0405757008350704,1.2098621948896744
9.60690729067024,1.4089942986570945,0.6957302449006222,0.33429251060470416,9.50214893007165,1.0363997895772883,10.998053078032964,2.018717157114779,9.60690729067024,0.9759000242966843,4.074148635939873,1.218383180622886
9.85402099903716,1.427616451033727,0.7060573864218471,0.33460015872733306,9.749581912395918,1.0432543574106095,10.998336297780373,2.014192125281223,9.85402099903716,0.974680201826454,4.107636262862562,1.2207128485134493
10.100296743034193,1.4448638912822214,0.7166449693596131,0.3389382541638985,9.99697904252985,1.064835363169999,10.998655108203009,2.012459245901247,10.100296743034193,0.9872831531696895,4.141135396224723,1.2246896474234308
10.347034359572044,1.4632221419333682,0.7271969174198524,0.3394625471683238,10.242712149266772,1.0719147186225402,10.999011233383298,2.0206361980949565,10.347034359572044,1.0147699213793477,4.1746324505437995,1.2347288229214597
10.590929345698022,1.480492355157621,0.7379842965110047,0.34346889940376935,10.487955817934344,1.091782532518445,10.999403200082545,2.0216391183846794,10.590929345698022,1.0143635067014165,4.2081621143070045,1.2403059838050363
10.830612646225575,1.4969971823741024,0.748903583778051,0.3456341206942666,10.730100171474668,1.1015241920270542,10.999846588268186,2.0162001188991954,10.830612646225575,1.0282533379328107,4.241316599054892,1.2419905108068303
11.073417028429095,1.5143555051904416,0.7600473409356061,0.3473206704066897,10.97309752090851,1.108229905237214,11.000321645002414,2.0146940690928514,11.073417028429095,1.0345507522098436,4.27464673234018,1.245959417030711
11.311365407007502,1.5307647171670113,0.771394378917631,0.35129208522700966,11.213999407808918,1.1259512744987958,11.000843523279103,2.0133126901759737,11.311365407007502,1.051565967980792,4.307783314734246,1.2500334886601479
11.551107817130559,1.5473372264681666,0.7826055581934245,0.3526257675623262,11.452748000236943,1.1374255068533554,11.001403835847283,2.012370296902973,11.551107817130559,1.0589141347044992,4.340956807657448,1.2542988197062086
11.79053542927605,1.5641119621692288,0.7940837271059129,0.3571034384542573,11.692291616249348,1.1563987482268723,11.002010022190795,2.0125376198669143,11.79053542927605,1.075779867877826,4.373984791447496,1.2592663166604885
12.025394070161036,1.5789705056438754,0.8054724203186178,0.3566289658395176,11.928204708441296,1.1573484725233403,11.002654959359601,2.0151264935302735,12.025394070161036,1.0821624214447103,4.4071729195987155,1.2656554073878497
12.261429209760468,1.5949588814138478,0.8171033946433246,0.3620843702908318,12.164791954739862,1.182738292112621,11.003349842714636,2.009612231383202,12.261429209760468,1.0861741306313015,4.4401277708905775,1.2669656173065984
12.49376928203127,1.6087669374816334,0.8289025631977538,0.36445721478381893,12.399125823577071,1.1886585147623026,11.004088627894324,2.0112889742969897,12.49376928203127,1.1029018716395234,4.473145209547739,1.272767636427219
12.726567446764525,1.623928966097898,0.8407324343605143,0.36690404175403485,12.632457472594508,1.2010471552876443,11.004873908743537,2.0129066975066316,12.726567446764525,1.1141338531831035,4.506108588877433,1.2785178184661008
12.956315575541447,1.6377608088713052,0.8527508408978463,0.36831792054702206,12.864161827580107,1.205097910851775,11.005705943561242,2.0195330635119975,12.956315575541447,1.1334176281428316,4.539067131721234,1.2874531115543488
13.186734573900276,1.6514823100180422,0.8649321713819487,0.3701019786100071,13.095552162629778,1.2120194001461433,11.00658735197003,2.014766384469172,13.186734573900276,1.1316879097783357,4.571802089281846,1.2890980020943872
13.413772989427331,1.6644913852131946,0.8772424678954931,0.3748822053575422,13.324800517819318,1.2330896535842566,11.007514798270293,2.0254358438943414,13.413772989427331,1.1604487340422505,4.604710347859145,1.300601231901875
13.641254686240769,1.6785189780218248,0.8895262542244666,0.3753701590406045,13.552258006774503,1.2345357763621845,11.008493323574955,2.021399329492735,13.641254686240769,1.1571508518491291,4.63732385297503,1.3026583872778346
13.866902371791488,1.6923585081517176,0.901886205046313,0.376398859830993,13.778699359367048,1.2408160026372947,11.009520899142025,2.0160911249864464,13.866902371791488,1.1608382338768457,4.669900582447224,1.3038219983681671
14.090072372538076,1.7043102692613514,0.9144853456406236,0.37939289995506176,14.003951283283644,1.2515015747380784,11.010598381731443,2.0207808306863817,14.090072372538076,1.1800706483774892,4.702599099294967,1.3114174830688152
14.317280765734187,1.7176716911313485,0.9271863383222639,0.38374223052721657,14.23015126143376,1.2688398906083624,11.011727674713729,2.0210936289879857,14.317280765734187,1.1864342887370367,4.735170744284503,1.316171860968131
14.53940927983187,1.7298230552792975,0.9400346371045906,0.3872643286746,14.454317756336975,1.2795199106511634,11.012909822970403,2.0240467517700016,14.53940927983187,1.196660724433203,4.767791081626951,1.3226099845184494
14.758809664293986,1.7412058815665774,0.9527558708367403,0.38987437816313125,14.675111942472611,1.2933769196745397,11.014145060474588,2.021376886487604,14.758809664293986,1.2084381282816554,4.800097822069977,1.3254129587303083
14.979261268907894,1.7538151364245005,0.9656012092860138,0.3929822925383145,14.89556097776301,1.3049426484039308,11.015430996849028,2.0167582725328854,14.979261268907894,1.2084063674338834,4.832408312294672,1.3268358026817701
15.19802936765069,1.7650141667314947,0.9785031677867794,0.39534184235747266,15.114901601227618,1.3135124847850033,11.01677068447643,2.0224461209512623,15.19802936765069,1.2368280848015558,4.864676809176719,1.335056992767799
15.414034901650439,1.7768063193464536,0.9914204305721444,0.3960326889186478,15.332150195044797,1.3161868587947485,11.018163794551716,2.024237433182279,15.414034901650439,1.2351930533513047,4.896993873662043,1.3406295506753783
15.625407839748123,1.7876798658254696,1.0045479332229474,0.4003742871484968,15.546860249165139,1.3328772670974185,11.019612268715786,2.0279663376870043,15.625407839748123,1.2498490071752952,4.929248319003355,1.3475017414489996
15.84098431616135,1.7999044615676107,1.0175779679918595,0.4000157163466959,15.761066193920275,1.3306487575738446,11.021115052561834,2.0241995701692987,15.84098431616135,1.2432730493247874,4.9614525701202,1.3493371825611824
16.050167271485186,1.8099503933908831,1.0310015857640926,0.4035636586635621,15.973964204614463,1.3399546402276485,11.022670996924989,2.0169788485108096,16.050167271485186,1.2572714336372621,4.9933062654002525,1.3489066857554348
16.261506378653543,1.8209376412104281,1.0443522004679788,0.4069594788532771,16.18547831122844,1.3547319033758969,11.024281632083378,2.0127910420422586,16.261506378653543,1.2597566977192782,5.025252663317114,1.3503824723368025
16.470372184547877,1.8316023331807039,1.0578191616711061,0.4097352535512209,16.39552915575349,1.362620831749911,11.025949812037766,2.0180439515524666,16.470372184547877,1.2833718253357473,5.057214490867498,1.358191524584676
16.67378073876183,1.8401273910573175,1.0712333634251248,0.40976710181247183,16.60165995275541,1.362170893193089,11.027675237708936,2.024144928188612,16.67378073876183,1.293229155045871,5.089189341900909,1.3665503307089342
16.88187334594967,1.84974631322034,1.0848816755149562,0.4172035010445986,16.80930690866547,1.3924897864743644,11.02945640126348,2.024780809138324,16.88187334594967,1.2929961693385486,5.121096056153674,1.3711986731050294
17.08957513410789,1.8602791965171146,1.0985167383122811,0.4179027899801417,17.01627112381954,1.3884303908315485,11.031293085054745,2.0228811362715815,17.08957513410789,1.302657039160879,5.152816044250782,1.3741404746562254
17.294903166625073,1.8705244211065026,1.1123170274588876,0.42264839757436057,17.222919506355108,1.4062967974381921,11.033186413039088,2.014609855771088,17.294903166625073,1.2961851876354002,5.184440489150359,1.3726773825237024
17.497149107106075,1.8790639788305281,1.125971276385229,0.4233873120991965,17.426292968094558,1.408891311959686,11.035144935787935,2.0178614756151996,17.497149107106075,1.3130133441025764,5.216239345988077,1.3790146421927238
17.69260505221854,1.886679232613724,1.1398626463105328,0.4254467199367131,17.62613663329414,1.4127949890361342,11.037160866912693,2.022379775435625,17.69260505221854,1.3301254365121935,5.247906720250979,1.3862550323229463
17.89061797319059,1.8944660969433118,1.1536863269907556,0.4265626591215795,17.824542905587723,1.4177976500830243,11.03922735762253,2.0146087095359557,17.89061797319059,1.320923030643156,5.27933905860788,1.3850305912713192
18.089786626764162,1.9030592928752426,1.1676769152732651,0.4293857242540496,18.023495413736427,1.4264010947630363,11.041356860806008,2.0179500855708277,18.089786626764162,1.3413725099440097,5.310865175350015,1.3914041684217338
18.292960067703316,1.913590678205438,1.181856270164066,0.4349783460790301,18.224910525958748,1.444747257057677,11.04354743460513,2.0176862595784018,18.292960067703316,1.3397633123484733,5.342375694556498,1.395248372364554
18.496446086145603,1.9241420335202388,1.1958524431200357,0.4364254636474204,18.42633739556771,1.449736452900373,11.045796721030197,2.014700608923503,18.496446086145603,1.3458136926124962,5.373733378730573,1.3972086365087701
18.691270318910842,1.9321719868292093,1.210029679923259,0.4383095592501918,18.624683171507428,1.4529841699873733,11.04811448655561,2.0222264001333197,18.691270318910842,1.3685055046943437,5.405180306976136,1.4064417323706464
18.884300354872092,1.939978399642743,1.2241437840073397,0.44151438513744384,18.819861291448326,1.4675129017738624,11.050493369231608,2.0276121692388998,18.884300354872092,1.3748865238812704,5.436580461659566,1.4141814463541245
19.07702691058763,1.948248309677345,1.2384001519082395,0.4426035379205217,19.01376080185873,1.4658316032653547,11.05292794210713,2.02774486244057,19.07702691058763,1.3792774015259617,5.467809352670938,1.418261531884004
19.26611200635669,1.9555745986163582,1.2528577356852197,0.4464335076370338,19.205741437667374,1.4769839200805284,11.055425643854473,2.0251817222772583,19.26611200635669,1.3765250600757541,5.499028489528554,1.4203969611364717
19.456600210170865,1.9642221221993197,1.2672874730838006,0.4515773850910156,19.39656161551715,1.4967111773517587,11.057981775006075,2.022477448485348,19.456600210170865,1.384579839950118,5.530132229791749,1.4224241970216278
19.640579345161157,1.9719067209058552,1.2818436305328635,0.45318639166748387,19.583856380992657,1.4947078371551785,11.060598664689202,2.0266258420268857,19.640579345161157,1.407676133305811,5.561163106342626,1.4292747111686148
19.825988903685502,1.9797664711780556,1.2964039583484952,0.45550566252681224,19.770121697038444,1.5026140170923266,11.06326575221426,2.021435174442522,19.825988903685502,1.4027420353909716,5.591983195910227,1.4294972125232333
20.00977556681294,1.987754278530794,1.3110373268303213,0.4577139884807642,19.954991953610833,1.5080440075624133,11.066000549273937,2.0190645679783157,20.00977556681294,1.4042001788989773,5.622882067189622,1.431631715647565
20.190905262292976,1.994747674087507,1.3256146761321401,0.4615449847131442,20.13749947054514,1.5241520920731821,11.068802065360616,2.0201475956158315,20.190905262292976,1.4126926665788093,5.653804685765954,1.4361919498203064
20.37510262345205,2.0038070205511542,1.3401089074342005,0.4634300913074625,20.320114691841823,1.5304016097083069,11.07166030100318,2.0191182132777623,20.37510262345205,1.4192509219312448,5.684589492679145,1.439252956223111
20.55916433137655,2.011216096875217,1.3546521344827729,0.46302198049691007,20.503267010022338,1.5248764481852772,11.074586068426983,2.0221570541807927,20.55916433137655,1.4304383597947132,5.715394208895443,1.445186195098327
20.738306019380072,2.017526263951703,1.3694706450458751,0.46815352990193815,20.685064475124708,1.541447941718411,11.077580413663828,2.023972357434995,20.738306019380072,1.4309442006175468,5.746215516707407,1.4502126787397474
20.914867389009082,2.024754262786431,1.3842643101683512,0.46961399349528365,20.86379652061589,1.5418946596827654,11.080625082519138,2.0250922007225496,20.914867389009082,1.4482650191727833,5.776794030505119,1.4547847546797996
21.091419193980446,2.0313445830466756,1.3992456368697515,0.47490535845277754,21.04179933522557,1.558693134894581,11.08373801750637,2.0232685066310303,21.091419193980446,1.4402952492130325,5.807422472496599,1.4571572490365978
21.265106242617293,2.0381019822605793,1.4139062405044391,0.47524101088378573,21.216329290023893,1.5613438869728962,11.08691381957627,2.0253224566664456,21.265106242617293,1.4552944745154233,5.837989489446858,1.4623283291329183
21.435115071906612,2.0448908165902835,1.4287896839740104,0.477996676569903,21.38885462919588,1.5675359032326706,11.09014373985403,2.0264969012696272,21.435115071906612,1.4667687593503154,5.868397622414477,1.4668678237782609
21.60470150789755,2.050083204796596,1.4436505265132378,0.47901698199997,21.559591177818042,1.5684379858535056,11.093446206611398,2.029174147769703,21.60470150789755,1.4669121550348818,5.898906283562852,1.4724294453308018
21.77208574997002,2.055230177181925,1.4587526933595236,0.4823938064232555,21.729076816635907,1.5754297101269434,11.09680326990133,2.0308114271106605,21.77208574997002,1.4778966661706112,5.929262666810924,1.4772580119182408
21.937103815421796,2.0608439468220516,1.4739634572886533,0.4837712639903236,21.896401182098135,1.5733110751535901,11.100221564307036,2.026005070705766,21.937103815421796,1.4668543523489976,5.959566184111559,1.4773407410974422
22.109038246324683,2.066254001601183,1.4891867018835425,0.4864445947347191,22.065985702047268,1.5819457230298775,11.103701168031012,2.025597272039387,22.109038246324683,1.4804789350703738,5.989811014889935,1.480624150083588
22.275264968585955,2.07046195650378,1.504386845203305,0.493264364577062,22.233475821428943,1.6094384704569016,11.107243972820086,2.0262849138138885,22.275264968585955,1.4891484259381238,6.0199886839382275,1.4846888720467035
