coupler,coupler,$D^a [mM]$,$D^a [mM]$,$I_{islet}^a\ [pg/islet]$,$I_{islet}^a\ [pg/islet]$,$\gamma^b$,$\gamma^b$,$I_{cell}^b [pg/islet]$,$I_{cell}^b [pg/islet]$,$G^b [mM]$,$G^b [mM]$
2.697190237404954,1.069479034118772,0.5037706515649122,0.22501223297253758,2.3541878019899576,0.45013086746765124,11.000311132059329,3.4996311750761673,2.0094717399909525,1.48155775438926,3.206119058898708,1.885981539824511
2.9781223305689726,0.9641818369477972,0.5067709607630644,0.27523696780590057,2.587566583589443,0.5532779555034011,11.003155826335338,2.6306168703442925,2.5311677080804853,0.7953133931719398,3.239113806121398,1.4190840619396325
3.258165178823427,0.9249542834003429,0.5097888176801036,0.2850224494256414,2.807106763656242,0.5954494271376463,11.005156230854878,2.309711298638898,3.0404466574383116,0.6331360509028429,3.2760202656463786,1.2496496887986868
3.5376091670248853,0.9138620020257574,0.5131742315209743,0.2865796578396297,3.032611975662061,0.6218928896567875,11.00627402589005,2.168927049390095,3.452543629526427,0.6328654657890447,3.313093999974118,1.178306276858782
3.8148712755458543,0.9186716412680782,0.5169802507684051,0.28677893959339457,3.2661222004774255,0.6451376751164636,11.006989014131163,2.1000006940724107,3.799748360988047,0.6691715720460002,3.3498739034873055,1.1463721700047946
4.0906580074321885,0.932150465100505,0.521222636867299,0.2885374132963933,3.507278100668485,0.6718142186423361,11.007495879782793,2.060867349639334,4.111292381309862,0.70009095567628,3.386460576296637,1.1307873043436494
4.365283282120956,0.9524422775251732,0.525850761702792,0.2901665460759888,3.753248920328105,0.6979910842942971,11.007886296004939,2.0387625091903727,4.4040551454232,0.7265709143097473,3.4229626341758586,1.124533177358952
4.639538895448329,0.9747338516931332,0.530908362727746,0.29106188683689327,4.0051475517121,0.7203151032075041,11.00821795433544,2.0321704386629653,4.686982392782591,0.7585704527476993,3.459335472874345,1.1268840821916475
4.912608599298329,0.9983493853184019,0.5363020604913364,0.29214416977208085,4.259534582890398,0.7442081070728527,11.008514145510773,2.0268285031920805,4.964154251779481,0.7825361871022983,3.4955463807348326,1.1298865887648821
5.182971870318584,1.022984890238555,0.5420970269425701,0.29377115953713034,4.517591558577694,0.7676049173117908,11.008784923457222,2.0209672057809396,5.23723361918577,0.8017808133739603,3.53164067896445,1.1325200589529676
5.453130478066097,1.0493306588478628,0.548248051521302,0.2975099463420255,4.777979142887801,0.7970981330218431,11.00904498733943,2.0193485947927243,5.508142095305394,0.8256193810143448,3.5676052737905466,1.1375084476298072
5.722982422005461,1.0762820866102332,0.5546071172890068,0.29807339118827486,5.036499255730435,0.8175746482469939,11.009298711068299,2.015636590440321,5.777699156614028,0.84432340745914,3.6034388976812806,1.1412433377896067
5.99037803011163,1.1015889433857622,0.5613778599459349,0.29962939289345963,5.298805768677906,0.8379188428562622,11.009541790676598,2.0176572333389564,6.045529417962996,0.8675132992136892,3.639234422632929,1.1481775170266073
6.257533059336657,1.1271211288265457,0.5683374329471974,0.30043281434665414,5.559343975593155,0.8579308131562999,11.009789923831255,2.0196725591450906,6.3121847176703865,0.8899638367067685,3.674879626412959,1.1550961780892737
6.52273867837435,1.1523730697783194,0.5756927369074942,0.3029100569870729,5.82288851235062,0.8798507353135717,11.010050875299955,2.017207065594633,6.577231641694228,0.9084113361856934,3.710306134036454,1.1594136513718676
6.787093213018478,1.1761151084162633,0.5833356768419206,0.30572007035912147,6.086860055232191,0.9028885244447143,11.010306889516256,2.012910489002349,6.841294345958563,0.9199878936655397,3.745751568088236,1.1625354300555708
7.049228055226544,1.1989871233328748,0.5911189609533771,0.3072380839269492,6.347654987703687,0.9229575307214519,11.010587494296583,2.008938156643609,7.103611163612834,0.9403205688169507,3.780948089840581,1.165864333236655
7.311808454556259,1.2227120404904899,0.5991982045707341,0.30933005258348406,6.60932871307762,0.9425088844303762,11.010853157815026,2.0161089358503976,7.365521826366185,0.96229856856667,3.816356678469184,1.175546954358056
7.573972972072107,1.2459902589886058,0.6074327656013268,0.309403737286462,6.869239263070917,0.9557764756919257,11.01113463467786,2.021360685701706,7.626795900186653,0.9804752749442578,3.851692097475752,1.184121236422947
7.833435599231372,1.2682119162729395,0.6161041282020161,0.31513884656648594,7.133012293581426,0.9854780737453097,11.011452511235504,2.0181978958264155,7.886242542916143,0.996124050502584,3.8867007609874733,1.187798946132145
8.090047087705193,1.2891075605802456,0.6247929390937854,0.3154004349053768,7.391373900494214,0.9982838361356209,11.01178581689379,2.0185008016451453,8.143572191600022,1.0160112533795609,3.921624697312118,1.1934603882088435
8.346079863831529,1.3101550883640556,0.6337074268242453,0.3166736126207804,7.649358688276972,1.0135954904197195,11.012128070498246,2.0220897379845524,8.3995980467921,1.0335832282769306,3.9565915056860312,1.2009856645335553
8.599368043248644,1.3306418390204118,0.6428235741887273,0.32035165072045896,7.906252892493465,1.0370681519724128,11.012493315911245,2.022110691055256,8.653543921532197,1.0467279848605193,3.9914585540214027,1.206361290328665
8.854484495286824,1.3507534710977929,0.6521209170104989,0.3241731975139356,8.162185969389396,1.0598300753644412,11.012890144769303,2.0202043624190997,8.90727646539791,1.0619703073115254,4.026165372077171,1.2105769172168064
9.107305314889087,1.3704966354974204,0.6616047835870762,0.32657319987299066,8.41730601980221,1.0764654699950373,11.013314962062742,2.0209439068906563,9.159769970117601,1.082430552645183,4.060739393806352,1.2163613477483557
9.358443275790755,1.390145713225261,0.671230468818042,0.32695549590420453,8.670984007377209,1.0860492329205873,11.013754455112172,2.02179002769087,9.410941588786272,1.0936048867421073,4.095388192441348,1.2220967449796638
9.606907290670234,1.4089942986570945,0.6810189204269516,0.32846149177039563,8.923467343605022,1.1001025752975346,11.014230786788785,2.022543988299702,9.660011634110607,1.1124082576081205,4.129835317928161,1.2278130333783321
9.854020999037157,1.427616451033727,0.6910224701771787,0.3300955894582913,9.175495049194161,1.1130224776025912,11.014740969256847,2.0152129823899867,9.907246598712394,1.1198040354699594,4.164090981457216,1.2285465645199445
10.100296743034217,1.4448638912822214,0.7012001439773798,0.33383786805480814,9.426582029792243,1.134040253861303,11.015269275793859,2.0195532902996036,10.153525849398456,1.1393332478883038,4.198493283044923,1.236322458411217
10.347034359572035,1.4632221419333682,0.7115686637935669,0.33773182396710705,9.677098120884422,1.1541806973560957,11.015840875395408,2.018223206804125,10.39907940591982,1.154959661448235,4.232629678885343,1.2406527548731954
10.590929345698017,1.480492355157621,0.7220186000883299,0.33906648631427116,9.925168313281128,1.1651270667205076,11.016435976212268,2.0163942364906093,10.643208038236676,1.1617334126027123,4.266845903987295,1.2445538373050304
10.830612646225594,1.4969971823741024,0.7327038666802388,0.33888179799418594,10.172967225863188,1.1687093651896512,11.017068079304696,2.01516098656313,10.884501058623758,1.1750950363503339,4.300953946670021,1.2488214336301704
11.073417028429105,1.5143555051904416,0.7435784184302052,0.34165704659305046,10.42068584759458,1.184850890971172,11.017739553182514,2.0143764592230378,11.125739012518451,1.1908516427774298,4.334936928474874,1.2533547581476585
11.311365407007504,1.5307647171670113,0.7545133675776162,0.34614127736616945,10.665181278186997,1.208195139471188,11.018442189802323,2.0210200436690386,11.364694393283456,1.213295015717017,4.368929604618881,1.2624884523840336
11.551107817130546,1.5473372264681666,0.7656683276477748,0.34964749169299414,10.909540414779029,1.22437134321137,11.01918723645512,2.0247645733740107,11.603126394231218,1.2317779432795841,4.402728868654926,1.2698257499520662
11.79053542927607,1.5641119621692288,0.7767790716216502,0.3514355794470673,11.150516061553637,1.2369161730253664,11.01996841648981,2.0203231218678104,11.841309274310774,1.2321859009017178,4.436496839234711,1.2719169754066249
12.025394070161044,1.5789705056438754,0.7881782835531346,0.35398366285094934,11.3923082002128,1.248933442513595,11.020793552855334,2.015701943668726,12.077208749432378,1.2428653252478412,4.470111319179885,1.273883510654008
12.261429209760477,1.5949588814138478,0.799621419294823,0.35860885425884476,11.632003234651616,1.2716398508938371,11.021657389637362,2.013526101989271,12.312491380039681,1.254530777017395,4.5037124620475435,1.2773314219203364
12.49376928203124,1.6087669374816334,0.8110652051757501,0.3598223640726389,11.86828615441264,1.280236568341977,11.022558154453806,2.016532353542848,12.545738075654862,1.26896899315913,4.5373769718685795,1.284021051199584
12.72656744676451,1.623928966097898,0.8227009877504126,0.3618580806274963,12.104778835789885,1.2907377991952607,11.023502237196624,2.021483934976059,12.778060537122371,1.285550536293006,4.5709975555295035,1.2919588912631637
12.956315575541465,1.6377608088713052,0.8345063435677241,0.36609881538840355,12.340715633058629,1.3098022645632106,11.024498110721638,2.015489896822578,13.00814162298697,1.2943943004376688,4.604244411196862,1.2929219242260535
13.18673457390028,1.6514823100180422,0.8462966081986432,0.3674029547189878,12.57378939332423,1.3180586375874626,11.025533460973667,2.014785094515177,13.237763214023294,1.3069583244527643,4.637537573035748,1.2971831737428547
13.413772989427313,1.6644913852131946,0.8583276595750882,0.37112000534201045,12.80730726112572,1.3340340031300213,11.026609001067548,2.021844560046056,13.4655553673813,1.3248377372819033,4.670937544193098,1.3064039349197767
13.641254686240789,1.6785189780218248,0.8702753451897038,0.37052038603103804,13.037224274430196,1.3349927014573277,11.027731736441979,2.0287972101954073,13.69245699041993,1.3414140953381544,4.7042676575621245,1.315577622398523
13.866902371791516,1.6923585081517176,0.8824299264440821,0.37612823255218614,13.267508836115603,1.3598496776498485,11.028901388985261,2.0300276793095495,13.918049949827367,1.3457874818152549,4.737555975615988,1.321003640426303
14.090072372538094,1.7043102692613514,0.8947102601626382,0.3761531035666608,13.496419959073025,1.3593935883519133,11.030123540564631,2.0258603123276324,14.141668147831004,1.3550888779839598,4.770572957886479,1.3229425692852301
14.31728076573417,1.7176716911313485,0.907164886772462,0.3803513188049851,13.72617241201866,1.3775937132624598,11.031392665309017,2.0236891056693325,14.366394692309061,1.3623411558287053,4.803634445938627,1.3260967317315464
14.539409279831872,1.7298230552792975,0.9197072806178812,0.3856704645676507,13.954181802039203,1.3998633056451637,11.032710623579517,2.0257941267108572,14.589239094821298,1.3759347621441937,4.836701342835367,1.332029353967545
14.758809664293993,1.7412058815665774,0.9323727468057676,0.3858575264273512,14.180706890669127,1.3994122927337445,11.034079671086651,2.0217907815831997,14.809584644099523,1.382793861992084,4.869566266881884,1.3339350459197514
14.979261268907859,1.7538151364245005,0.9449800759979099,0.38734586018804856,14.404573769383893,1.4088869558413726,11.035498508373307,2.0242545739964597,15.029337555644258,1.3999431189262146,4.902426719298003,1.340077180257726
15.198029367650674,1.7650141667314947,0.957781979873567,0.38968229237875945,14.628291861331508,1.4183866161180758,11.036968389423576,2.0235751416617345,15.247716834849921,1.4153606670503305,4.935045619200125,1.3441458522505487
15.414034901650432,1.7768063193464536,0.9707963150636717,0.3932988863032848,14.851938317963004,1.4318541420166107,11.038486940949506,2.019881233120073,15.46424723287624,1.4174366421303641,4.967659854439291,1.346106987876789
15.625407839748155,1.7876798658254696,0.9837384502699329,0.3955543481694554,15.071544366886952,1.4425880501695283,11.040056952525905,2.021671104234315,15.677698562551818,1.4308092637386434,5.000278692738572,1.3516961400419714
15.84098431616134,1.7999044615676107,0.9968947127046259,0.39528726463886577,15.29154124148203,1.4396767723859933,11.041679864732634,2.013623676896161,15.891381500563071,1.4275261382193953,5.032740514516045,1.3506568140342248
16.050167271485165,1.8099503933908831,1.0101932888322684,0.40308759144205636,15.510404354987347,1.4721999053763897,11.043357195806434,2.017858847289285,16.10246186684957,1.4420814860257056,5.065385297232157,1.357805315611428
16.261506378653515,1.8209376412104281,1.023231177380339,0.4038742939734688,15.723668926887687,1.4772415359290265,11.045088694190547,2.0179617204087075,16.31281728449908,1.455150425176432,5.097798410394369,1.362214900921497
16.470372184547895,1.8316023331807039,1.0364572015848537,0.4063702797471842,15.93701486100741,1.4866325737099995,11.046873822225246,2.0176571125175977,16.521758888765387,1.462598077242979,5.13018780871713,1.3662956975618532
16.673780738761803,1.8401273910573175,1.0499090501966222,0.40988008617441735,16.150033300367447,1.4983725172684237,11.048713343126368,2.019407599688136,16.727376926987805,1.4733834307134301,5.162549893290176,1.3717444628751285
16.88187334594963,1.84974631322034,1.0635114122046452,0.41220056594282284,16.36293037490737,1.5051923242399954,11.050608077459298,2.015969141556795,16.93346660205965,1.475187847481703,5.19481341617304,1.3736331363022534
17.08957513410788,1.8602791965171146,1.0770342687789853,0.41306078727817547,16.57333811272335,1.5095744287538826,11.052562156009849,2.0195300436883903,17.139800492632673,1.4877636900005218,5.227161563851923,1.3802598213360804
17.29490316662506,1.8705244211065026,1.0906048813523948,0.4170171593800521,16.78229400080349,1.526405754036746,11.0545739672555,2.021426307790302,17.344946935416193,1.4961039841903305,5.259447728695516,1.3857445031355886
17.497149107106114,1.8790639788305281,1.104311968526591,0.4201444044486592,16.990297032508984,1.536872588933711,11.056641048571587,2.019194495696968,17.54793319939246,1.5027448054663328,5.291561500486234,1.3883982879983654
17.692605052218536,1.886679232613724,1.1179576264498046,0.4212857611893988,17.194681507450838,1.5415262709440303,11.058766051250995,2.0232808401065174,17.746660579381697,1.5180159066437073,5.323699164959388,1.395367186902478
17.890617973190555,1.8944660969433118,1.1316799471286876,0.4226073899453798,17.397783527781794,1.5462137423645876,11.060942376085439,2.017816739913622,17.944171453469053,1.5208774156828426,5.3555693347900295,1.395740763829853
18.089786626764166,1.9030592928752426,1.1455531254930558,0.4248770682899469,17.60082137336699,1.5535412279908332,11.06317679732828,2.0167684535062165,18.141856790494746,1.5312598818347825,5.387433230530715,1.3991125291884372
18.292960067703348,1.913590678205438,1.1595102994367847,0.43061026259095314,17.803941987729527,1.5756076081792012,11.06547287921749,2.019345731902282,18.341567138585667,1.5421402193104365,5.419337967002615,1.404957059067898
18.4964460861456,1.9241420335202388,1.1735286769993485,0.4319129853296243,18.006759662094844,1.5777660642887223,11.067829347892888,2.021144752152385,18.542413787179566,1.5513033785639285,5.451178768059016,1.4102502977975944
18.691270318910846,1.9321719868292093,1.1874583942037498,0.43370473937017834,18.20673662973117,1.5858505848329947,11.070245108474078,2.019087079645216,18.73966107513466,1.5529797411725699,5.482940858458738,1.4128179159943126
18.884300354872053,1.939978399642743,1.2017309173598947,0.4349316412650794,18.40773682165691,1.5858256311276915,11.072716955208437,2.0187482995764308,18.93415254954097,1.567475824416948,5.514535276681483,1.4166012125047336
19.077026910587655,1.948248309677345,1.2160730020600181,0.44064366369756147,18.60751069224171,1.607643618224186,11.0752508985941,2.025136041315328,19.127125270633726,1.5866967779393852,5.546152406775225,1.4250752451924529
19.2661120063567,1.9555745986163582,1.230240959134853,0.445378145642944,18.802871338597534,1.6271192860700312,11.077841628677337,2.0233318210649225,19.317456374246056,1.5856307278623218,5.577657161995903,1.427742133178016
19.456600210170848,1.9642221221993197,1.2445075195732371,0.44650347245880123,18.99726494040686,1.6283010920164471,11.080492805729463,2.0249004055037503,19.507245458340986,1.5977544645363233,5.609098599882535,1.4327820776757072
19.64057934516115,1.9719067209058552,1.2589119246687641,0.4471468769799095,19.190531044055184,1.627910249217335,11.083206635344073,2.027590287781179,19.693575277814666,1.6060171572483852,5.6405413853895014,1.4385796757215876
19.825988903685502,1.9797664711780556,1.2733313083265696,0.45325270518178157,19.38199892777571,1.6523275432375313,11.08597838765485,2.0263672919926634,19.878761053901766,1.6093993443819317,5.671871967124469,1.441586170605436
20.009775566812937,1.987754278530794,1.2877139424149167,0.4571487362918549,19.570812928096196,1.665972521798801,11.088809922501426,2.0239905597992025,20.062613391536257,1.613139865763187,5.703127369992634,1.4437417591379578
20.19090526229303,1.994747674087507,1.3021258182629458,0.4563242228277825,19.757816383630768,1.6596328508161386,11.09170260222501,2.0223658054656615,20.244501693951285,1.6189086820911205,5.734332766711863,1.4464020107694873
20.37510262345198,2.0038070205511542,1.316637659099999,0.45800912236428104,19.94472781280631,1.664787633376359,11.094664607327518,2.0253361356518322,20.426934923099427,1.6274498441869178,5.765614609433609,1.452311355113361
20.559164331376564,2.011216096875217,1.3313952613574112,0.4639430624385924,20.132555283075185,1.684584425574746,11.097669391494794,2.018481599574781,20.60927047209747,1.6326902071696643,5.796516558216387,1.4512087942348844
20.738306019380122,2.017526263951703,1.3459822364024923,0.46678628600424155,20.316810531039213,1.6948581309360191,11.100748921549936,2.021773318570668,20.789538480591087,1.6445539096117663,5.827586798670572,1.457314625482697
20.914867389009107,2.024754262786431,1.3604817275005494,0.46417494105614815,20.498253038121607,1.6831870760374317,11.103890554065162,2.0265292486404705,20.967335974885785,1.6576337470737061,5.858598888790182,1.4644792409691094
21.09141919398041,2.0313445830466756,1.3753650732607197,0.46795685410492555,20.68146713216516,1.6939241509155911,11.10709004952944,2.0273881333414114,21.143814539673983,1.662989145412879,5.88949641568982,1.4688160973882027
21.26510624261728,2.0381019822605793,1.390187442213983,0.4683908937513601,20.86201761332381,1.69336316809722,11.110347735330967,2.0301153578994646,21.31826653560235,1.6766746319427903,5.920287305812457,1.4745064533403638
21.43511507190659,2.0448908165902835,1.405180559817705,0.4755013124501405,21.04152175878188,1.719140198491685,11.113663814239619,2.0301720997126935,21.489862893107308,1.6817469333092345,5.9509900593877525,1.4782224575133245
21.60470150789755,2.050083204796596,1.4200740147166258,0.47501460691244524,21.217762802023948,1.7138481577610636,11.117046442275845,2.025731924762212,21.65989111693589,1.6727974565600348,5.981707410292788,1.4785915311868771
21.77208574997001,2.055230177181925,1.4350841226226114,0.47782420934177217,21.39293075451691,1.7225973883338972,11.120489784287116,2.030474154500955,21.82804602400095,1.695147623037673,6.01234399872286,1.485698432529676
21.937103815421782,2.0608439468220516,1.4501574981229726,0.4824858721268997,21.566198533959177,1.7382558967043655,11.123988541165945,2.030654159551608,21.99391585803071,1.7006092568368594,6.042863894453909,1.489439461958289
22.109038246324687,2.066254001601183,1.4651663402987976,0.4818382965484765,21.73814395711213,1.7327453936451134,11.127556659523105,2.031709668289598,22.162135067419005,1.703103080968721,6.073424406935584,1.4937754549952984
22.275264968585972,2.07046195650378,1.4804825306734315,0.4871494403442458,21.910957717823003,1.7490340502514996,11.131175834749808,2.0274501554735247,22.32868037223066,1.704311369108336,6.10379231518539,1.4942013450439795
