coupler,coupler,$D^a [mM]$,$D^a [mM]$,$I_{islet}^a\ [pg/islet]$,$I_{islet}^a\ [pg/islet]$,$\gamma^b$,$\gamma^b$,$I_{cell}^b [pg/islet]$,$I_{cell}^b [pg/islet]$,$G^b [mM]$,$G^b [mM]$
2.6971902374049916,1.069479034118772,0.5037722134373566,0.22356125745916966,2.5992433385983715,0.4470285284279964,11.000240970951586,3.480190593962507,2.0018655419212954,1.4816929710826463,3.2058448098096726,1.875527966830853
2.9781223305689855,0.9641818369477972,0.5075817034972028,0.2747036289659965,2.9338202258768744,0.5159078728249105,11.002012604810991,2.622863827133687,2.1728638859012763,1.1183998332558747,3.2356009456314516,1.4146092469840656
3.2581651788234245,0.9249542834003429,0.5113312308180821,0.28494555276082695,3.224177375149557,0.5523976522724818,11.004196456045225,2.3094316095519303,2.3985334291277023,1.006508898738417,3.273264540352941,1.2485902602211363
3.5376091670249115,0.9138620020257574,0.5155199042908588,0.28924385491546006,3.505849017651744,0.5834630006266046,11.00640321153537,2.1662256069360724,2.6476886056183226,0.9768644127418027,3.3138942564021465,1.175608710381263
3.8148712755458836,0.9186716412680782,0.5201015210211691,0.28728644124789876,3.783739306262447,0.5980091467764578,11.008551472925847,2.093459792386051,2.905499700039037,0.9837847768470508,3.355434683155916,1.1416079555520389
4.09065800743224,0.932150465100505,0.5251951352422368,0.28921251309454055,4.06029456341138,0.6244129749867081,11.010533890993873,2.054175019679579,3.1677649936743197,1.007869314135047,3.3972084786045356,1.1262215193808358
4.365283282121013,0.9524422775251732,0.530605111436933,0.29057722139914177,4.33494404185217,0.6492284841972079,11.012365924511673,2.0355877519946253,3.4310974743273013,1.0427326553003544,3.438838208097269,1.122445568031262
4.639538895448367,0.9747338516931332,0.5364627577656794,0.29327962822116277,4.6093560164005964,0.6727238732772104,11.014046501283831,2.0208907788885093,3.6940117620164625,1.0787219151318967,3.480153503906209,1.120860629608044
4.91260859929835,0.9983493853184019,0.5426659719924826,0.2962748000181586,4.882666526973443,0.697496799037158,11.015563617283044,2.023575107778055,3.957160700763423,1.123230443459883,3.5212488439839116,1.1289833055362175
5.182971870318626,1.022984890238555,0.5491124045581165,0.29625896787892037,5.153392778693451,0.7125542225159762,11.016991010557033,2.019272994618301,4.217543488259806,1.1628779202350523,3.5618486384347063,1.1332175294366242
5.4531304780661305,1.0493306588478628,0.55592747445986,0.29887673663128916,5.423798701040548,0.7357426087315548,11.018318622659027,2.019242682364945,4.475924305392516,1.2038083406743094,3.602048135581297,1.139833121382229
5.722982422005494,1.0762820866102332,0.5630246495683757,0.3002366606965342,5.693643112838621,0.7521751116719727,11.019561113189793,2.0163889586383394,4.731850345036645,1.2415670165667447,3.641812332907605,1.144771366783028
5.990378030111626,1.1015889433857622,0.570415869145504,0.30242224355938757,5.961613535424703,0.7719751421525107,11.020711093565016,2.0187137899088774,4.9863139952808595,1.2810838557936195,3.681270047642414,1.1525641101649746
6.257533059336698,1.1271211288265457,0.5780868000887254,0.30322371314883384,6.22890972823652,0.7843911154168642,11.021800974432198,2.0167117682482165,5.238281862197012,1.3165316374850207,3.7203327586597803,1.157796360039474
6.522738678374352,1.1523730697783194,0.5860032896309778,0.3050370751825841,6.494583482867925,0.8028271084558571,11.02280566331803,2.0167625172186203,5.48970689757983,1.3516376491622073,3.7592341062200045,1.1640415429755842
6.787093213018472,1.1761151084162633,0.5941449264432811,0.30666208958801916,6.759108707511261,0.8187431188702411,11.023772895110973,2.01677801740901,5.73907786640111,1.38587633417645,3.797843309385871,1.170232293570668
7.049228055226501,1.1989871233328748,0.602555744827037,0.3100949065926764,7.021808343176254,0.8403023068696027,11.024692688061458,2.017900492243398,5.9870787828664245,1.419800616171094,3.8362390426667794,1.1769845040818394
7.311808454556295,1.2227120404904899,0.6111100284486077,0.3125587751782541,7.284170535890839,0.8579935466849578,11.025577293547045,2.0192324113120845,6.233497192030971,1.4529717419026047,3.8744118423055616,1.1837991784676547
7.573972972072119,1.2459902589886058,0.6200350424862625,0.3140240979570717,7.546606411534141,0.8655327840198901,11.026452480866004,2.015627802362035,6.4770675537276325,1.4818606004345702,3.9122228149160443,1.1876843088512081
7.833435599231433,1.2682119162729395,0.6290768715080806,0.3159269396310192,7.806673605748196,0.8830108152628867,11.027267442674319,2.012722444459835,6.721086047746057,1.5096129546203723,3.9500555566201316,1.1917611228873923
8.090047087705214,1.2891075605802456,0.6383961843874716,0.31914360584659746,8.064095676278038,0.9004586917070148,11.028070937009456,2.020064650750176,6.963795865550563,1.5449000131870416,3.9877437559140354,1.2019674985379785
8.34607986383155,1.3101550883640556,0.6478076239040889,0.32179656395917694,8.32022594088707,0.9178538060179955,11.028868545751864,2.01963846615076,7.204277757011821,1.5735705757249243,4.025163081676287,1.2075018585378163
8.599368043248644,1.3306418390204118,0.6574615266716415,0.3252641349261403,8.57417688029945,0.9350019885240535,11.02964947525107,2.021449823946344,7.443691316518806,1.6032555598587774,4.0624598734599155,1.2143134781871696
8.854484495286785,1.3507534710977929,0.6671795844262787,0.3260718753814666,8.828790100826852,0.9433297372401681,11.030424154731367,2.0195273575650465,7.6816219636386815,1.629244950359323,4.099591497318767,1.2188097229849522
9.107305314889055,1.3704966354974204,0.6771063695462767,0.32913954028492853,9.082058948354868,0.9616193338269798,11.031209708072826,2.0178675718940755,7.9171600364714,1.6550854148580176,4.136452561304605,1.2234696925354709
9.358443275790757,1.390145713225261,0.6871927320738599,0.3295104874345595,9.333573323303868,0.9649500735244545,11.031967157635618,2.015303571238578,8.152985282814909,1.6789426321800702,4.173363772348606,1.2273935143084413
9.606907290670243,1.4089942986570945,0.697648496201216,0.33460081213828075,9.583085022845307,0.9876751949653014,11.032743731384098,2.017231943503617,8.386655920471053,1.706515532590655,4.2100516919494,1.2341178677243214
9.854020999037166,1.427616451033727,0.7081564859753572,0.3377954530766472,9.83050381159211,1.0024270805301418,11.033516949214054,2.018283371620885,8.619262491839718,1.7326680109314256,4.246633975649533,1.2402289430376445
10.100296743034175,1.4448638912822214,0.7186207198461503,0.33886686546251893,10.076704089223897,1.0128054324273346,11.034310814856578,2.0112881841450334,8.849298112505391,1.7514191305064346,4.282930008554842,1.2413506621008292
10.34703435957205,1.4632221419333682,0.7292778448613961,0.34012781364260364,10.323298222601387,1.020606069862039,11.035102674715992,2.019423902143788,9.078743941268412,1.7830011259091212,4.319187263154405,1.2518093594678832
10.590929345698026,1.480492355157621,0.7400696205859002,0.34306488807876445,10.567770584813314,1.0371685644578748,11.035900710872614,2.0192474359436767,9.306703009254623,1.8065763199270148,4.3552899960645535,1.2570217338357288
10.830612646225562,1.4969971823741024,0.7509623016879221,0.34511066476324714,10.808399594197729,1.0474019927215412,11.036711244191432,2.01836385506622,9.53343056966475,1.8290430793470185,4.391284939093298,1.2617421521056462
11.073417028429088,1.5143555051904416,0.7621075423851033,0.3471274944002382,11.0508171723149,1.0541168009148811,11.037534251690182,2.017626983831945,9.759159119731239,1.851163277010195,4.427204949184189,1.266499335274994
11.311365407007502,1.5307647171670113,0.7733826926062908,0.3536156121157622,11.289800622956166,1.08519542734402,11.038375593199735,2.0192905051643777,9.983575910902083,1.8752036968816452,4.463012767998683,1.272753286133079
11.551107817130568,1.5473372264681666,0.7845442454375212,0.3529036154265026,11.52885110623064,1.081375296833626,11.039236237951952,2.02283523971208,10.206496706744737,1.9007348004342128,4.498681238930837,1.2801884232149066
11.790535429276034,1.5641119621692288,0.7959485476411868,0.35794373299578086,11.76839285457455,1.106518657542179,11.04011327395146,2.0187719490898006,10.428205569617793,1.9184864330413067,4.5342461272473065,1.2827071861182453
12.025394070161031,1.5789705056438754,0.8074398948853239,0.3591502803097003,12.004129574496801,1.1081470615702527,11.041013866910806,2.0253553877788293,10.64866769227461,1.946313210465676,4.569712622127787,1.2920364179930428
12.261429209760461,1.5949588814138478,0.8190644912883874,0.3594383536245307,12.240147844673022,1.1097569870717288,11.041927945106504,2.031173531193801,10.868462577883683,1.9729549712860532,4.6051495776366655,1.3008165115705854
12.49376928203129,1.6087669374816334,0.8308779708555748,0.36355509439416145,12.473412069573596,1.129702709198783,11.042871429377664,2.026361258408482,11.086465941278552,1.9888684596058477,4.640416940247126,1.302730318100394
12.726567446764536,1.623928966097898,0.8427404549999846,0.3659561181853697,12.706106053976091,1.1385713102676334,11.043842314996251,2.023643755409423,11.303303600093223,2.0065202406110867,4.675600570301272,1.3059603214542943
12.956315575541433,1.6377608088713052,0.8548745800526567,0.36966219838371506,12.936693590025246,1.1500674758258325,11.044841372784388,2.0222358843684782,11.518735211083909,2.0251843180190447,4.710664158475764,1.3100120444913845
13.186734573900273,1.6514823100180422,0.8669777244314667,0.3708327817609521,13.16695845366632,1.155126888976488,11.045863945153107,2.0207550139571437,11.733306082153124,2.0433318483496454,4.745679841180647,1.3139495032665351
13.413772989427345,1.6644913852131946,0.879171500534107,0.37490411347960056,13.39467704433518,1.1751972906550772,11.046917911283737,2.0216322558642195,11.946367073696726,2.0636912834861505,4.780563251650455,1.3194209808690192
13.641254686240755,1.6785189780218248,0.8915626554261123,0.3780029062425011,13.622182532265517,1.1824188357914265,11.047994788850481,2.0223127778755954,12.158935137564916,2.0833849188139295,4.815451081597206,1.324685481853239
13.866902371791467,1.6923585081517176,0.9039662210734234,0.3788610256048089,13.848158691327773,1.185096234331921,11.04910031248082,2.0240422627766894,12.370994011180128,2.103863012018866,4.850351495901445,1.330597178278381
14.090072372538064,1.7043102692613514,0.9165444485161309,0.38342444441950047,14.072026697450754,1.2050976978986816,11.050246116382157,2.0192867536253774,12.581063337340607,2.1174350473022647,4.885061160186189,1.3322384816975477
14.3172807657342,1.7176716911313485,0.9291198570950603,0.3849942599227661,14.298223720391194,1.2089462655287193,11.05142309394299,2.023201573803272,12.790411391827472,2.139915650431503,4.919751222624825,1.3395972548503525
14.53940927983187,1.7298230552792975,0.9416955003929299,0.3871455212900915,14.521161125298322,1.2206119363452008,11.052634065827018,2.0281408657932083,12.99833238499403,2.1633421656416023,4.954320570078559,1.347638077008385
14.758809664293983,1.7412058815665774,0.9543020570933325,0.3888096591987099,14.74119807792984,1.2279759799117265,11.053880396089534,2.025246622971951,13.204514818469564,2.1780808310212194,4.988722968007786,1.3504203734659865
14.979261268907921,1.7538151364245005,0.9672513193840918,0.3926632393415673,14.961757398498419,1.237742958456432,11.055161438286971,2.0166919832855856,13.409571450385487,2.1862480006267844,5.023047011035229,1.3493323405421955
15.198029367650703,1.7650141667314947,0.9802118561016331,0.3945800904601482,15.18083676207284,1.2431787226628408,11.056478930491384,2.0152728113908434,13.613850322024591,2.2019242965259918,5.05734660553347,1.352996274948213
15.414034901650444,1.7768063193464536,0.993163495136104,0.3958423173633128,15.397405651641472,1.2493361499895825,11.057829324593163,2.017577877185124,13.817971096600852,2.2213389342826724,5.091709940253639,1.3591037457900454
15.6254078397481,1.7876798658254696,1.006356151829233,0.4014508302247674,15.61005998249337,1.2707738579904337,11.059221824488901,2.0192889657642703,14.020539654725502,2.2400525077327695,5.125942601377226,1.3648302998947188
15.840984316161357,1.7999044615676107,1.0196190965525427,0.40526830211046966,15.82483775919453,1.2803123556584006,11.060651508022055,2.0228965688775835,14.222456677326583,2.26063805917635,5.160170516741088,1.3718079229633802
16.050167271485204,1.8099503933908831,1.0328389059900842,0.40522948270269754,16.03515977497919,1.2771063975341799,11.06212312365587,2.02706917953177,14.422938057973715,2.2817998105366626,5.194282721281721,1.3791865404368773
16.261506378653564,1.8209376412104281,1.0460248916933146,0.4068106165412577,16.246124243715123,1.2881857048831171,11.063636422325716,2.0247634230421303,14.621532867433976,2.295465363631213,5.228207946578681,1.3821322882804614
16.470372184547863,1.8316023331807039,1.0594168042580263,0.41201254716004126,16.45546515511514,1.3076172596600273,11.065188623019779,2.0239011325257543,14.819403345189814,2.310439586589999,5.262115267268682,1.3860040723693294
16.673780738761852,1.8401273910573175,1.0727919616580663,0.4128566567980969,16.66005370009158,1.3053541792035186,11.06678412426131,2.0190875866773776,15.015441097863654,2.3207148261408155,5.295843056032057,1.3871476407486023
16.881873345949703,1.84974631322034,1.0863171552487205,0.4165888149486418,16.867402142903188,1.3196283640594189,11.068418982435272,2.022114312131594,15.211302374083123,2.33970952557918,5.329634464379798,1.3936276499954316
17.0895751341079,1.8602791965171146,1.09980935662479,0.4171650984180324,17.07481634835727,1.318875121734851,11.070098334306952,2.0225784352509635,15.404838840245084,2.3557415107325776,5.363171838794448,1.3983737879382805
17.294903166625083,1.8705244211065026,1.1135791368387034,0.42175396116532393,17.28079047700295,1.3342541501103762,11.071816952291583,2.0210059672283123,15.597665078700674,2.368994808162717,5.39668930108896,1.401622465513504
17.497149107106047,1.8790639788305281,1.1271707407466107,0.42342406158042206,17.483577505420378,1.3412028388025292,11.073579580381635,2.020272959228345,15.789308777967607,2.3830558458532587,5.430123120641592,1.4054300191711875
17.692605052218543,1.886679232613724,1.1408555578531272,0.42511874413731926,17.680667176115602,1.3455495815804328,11.07538606325154,2.0165273772516885,15.980122091260519,2.3932465608560505,5.46352589410838,1.4070732162418427
17.89061797319062,1.8944660969433118,1.1547452069289352,0.43030257689397666,17.878529820436988,1.3633438521630352,11.077239275257151,2.0260226814245406,16.170312359381732,2.4191766840150315,5.496933753754112,1.4179962860518516
18.08978662676416,1.9030592928752426,1.16875062427019,0.43362868472965355,18.077347508464815,1.3684608029861902,11.079136567613004,2.026324031075273,16.358969248803934,2.4339309633080912,5.5302036478541625,1.4224477602609837
18.29296006770329,1.913590678205438,1.1826800511070967,0.43423465867873834,18.279364409598113,1.3687947942883345,11.081079805290747,2.0258679558206922,16.546022618318613,2.4476708677896086,5.563325194705965,1.4263651250635083
18.496446086145603,1.9241420335202388,1.1964778265187375,0.4340151703813895,18.482264611132507,1.371801521739173,11.083066838265855,2.0229158610904308,16.731323537169256,2.458211632886942,5.596269244659942,1.428499786454437
18.691270318910842,1.9321719868292093,1.210587911092235,0.43968825586126625,18.67907614597626,1.392429434264112,11.085102085554274,2.0293297723431585,16.9175874875178,2.4797363291774674,5.629459359723652,1.4371516669709923
18.88430035487212,1.939978399642743,1.224689976258452,0.4432351022253048,18.872810184047715,1.401174394913132,11.087185796901865,2.030673984012834,17.101637792172326,2.495163834199093,5.662412089919587,1.4422655227114083
19.07702691058761,1.948248309677345,1.2387581762319004,0.44233324282801545,19.065632707558564,1.3923439861852922,11.089316364023595,2.0356682316484105,17.284519448938784,2.5149848412115903,5.6952806362920105,1.449974044519497
19.266112006356682,1.9555745986163582,1.2530802454700454,0.4480224025869818,19.255738340906756,1.4149447682875491,11.091492328352818,2.0307100810821432,17.465950573467172,2.522222322253378,5.728018531482638,1.4505256235252268
19.456600210170876,1.9642221221993197,1.267336109576989,0.4469459375676906,19.44589589525592,1.4024116528179285,11.093717202731229,2.026019405943493,17.646338250874102,2.529571006106435,5.760692124650199,1.4512250187758224
19.64057934516116,1.9719067209058552,1.2817507482819266,0.4516286103012708,19.63140609235606,1.4228147103484778,11.09599628910732,2.028059171774386,17.826978820819658,2.5450517978879144,5.793509847450889,1.4566829771089076
19.825988903685502,1.9797664711780556,1.2963549307076134,0.4544293952628217,19.816802593965424,1.423310421687348,11.09832608464994,2.0270186433315476,18.00612481236399,2.5566348609281953,5.82619859605743,1.4599397425168812
20.00977556681294,1.987754278530794,1.3108643669963986,0.45816281812880155,20.000836073265344,1.4393108415207567,11.100707693383297,2.0268333845261113,18.184406402207628,2.5691425656341105,5.858854599696632,1.463788280209109
20.19090526229294,1.994747674087507,1.3255164356819569,0.4607433819235303,20.182578095655792,1.4415644667924035,11.103136700127012,2.023529737986142,18.360869987805824,2.5776170558894136,5.891322177468273,1.4653857161598125
20.3751026234521,2.0038070205511542,1.340151932052716,0.46206481241586594,20.366119424236476,1.4438515603083986,11.105618418693403,2.0256292758134067,18.5369090343979,2.592751978115841,5.923822822751751,1.47085119260421
20.55916433137654,2.011216096875217,1.354846726771558,0.4641024149925066,20.54999488663186,1.4498326185374621,11.108144917545147,2.0227710518148236,18.710852391468915,2.6014787277995515,5.956085849884828,1.4727216561936052
20.73830601938004,2.017526263951703,1.3695286026114557,0.46722869241250287,20.730095996350073,1.461973566833062,11.110725652683215,2.02875061724438,18.884590774552148,2.621365219492534,5.988416527565604,1.480985958071695
20.91486738900906,2.024754262786431,1.3844113681632348,0.4729179224160414,20.907480688628652,1.478330637236371,11.113358123098374,2.035115955210165,19.057347112932366,2.641673306045324,6.020693203652063,1.4895265692542121
21.09141919398047,2.0313445830466756,1.3991640962776222,0.473069391332837,21.084009213325025,1.472754486450468,11.11603937798754,2.033590056766781,19.228610501108456,2.651598925806508,6.052831260153698,1.4922630694205086
21.2651062426173,2.0381019822605793,1.4137995272201127,0.4737521311001218,21.258194339484874,1.4789004097639906,11.118769903498073,2.031109311298016,19.398433232035426,2.6601628229184335,6.084836830590839,1.4942847204672056
21.435115071906626,2.0448908165902835,1.4286901436116668,0.47798830721840607,21.429201939145358,1.4906155065711464,11.121552013348213,2.028772667220054,19.567269704919106,2.6687134406925996,6.116782379579795,1.4963685104975026
21.604701507897545,2.050083204796596,1.443662485680311,0.4802809170317449,21.599064681122734,1.491479076107501,11.124389364865463,2.0290663142231113,19.735445885819896,2.6805471307387627,6.148724470995924,1.5003544944467906
21.772085749970024,2.055230177181925,1.4586565967312088,0.48239802711964114,21.766968603509994,1.4963642991708328,11.127285030676594,2.031376525033294,19.90313705352389,2.694895830862662,6.180696206706134,1.505799509196048
21.937103815421803,2.0608439468220516,1.4736459423813606,0.48510307583544127,21.932541031971766,1.5052458517241198,11.130231965050061,2.028449455491519,20.069420843557143,2.7022040590378023,6.212542992505325,1.507349129236112
22.10903824632468,2.066254001601183,1.4887511591771858,0.4894517425765843,22.102952960652374,1.5174761200505744,11.133229098398177,2.0315612472256968,20.234294777229266,2.7175564006155524,6.244259804397854,1.5134159921222268
22.27526496858594,2.07046195650378,1.5038560525693958,0.4904318606737546,22.270035174874533,1.5141626933579542,11.136282099400185,2.029240944568568,20.39855232659574,2.7253514639904965,6.275978486312954,1.5153522038830411
