coupler,coupler,$D^a [mM]$,$D^a [mM]$,$I_{islet}^a\ [pg/islet]$,$I_{islet}^a\ [pg/islet]$,$\gamma^b$,$\gamma^b$,$I_{cell}^b [pg/islet]$,$I_{cell}^b [pg/islet]$,$G^b [mM]$,$G^b [mM]$
2.697190237405017,1.069479034118772,0.503772178123658,0.22371183620249424,2.599242815634795,0.44732974978364076,11.000194817530216,3.4569639788230555,2.697190237405017,0.4454685717277581,3.205650538204382,1.8630352172043412
2.978122330568988,0.9641818369477972,0.5075380408113207,0.275512226318706,2.933586786892068,0.519433578490006,10.999963319954674,2.6138773071206294,2.978122330568988,0.5196207464481537,3.2290984337755417,1.4101915419912796
3.258165178823424,0.9249542834003429,0.5112858183744,0.2854222335867445,3.2240485217684784,0.5529787236376138,10.999677513116461,2.305105003554127,3.258165178823424,0.5416272402866594,3.258892096419044,1.2464836289656056
3.5376091670249146,0.9138620020257574,0.5154431357781798,0.2878483621505289,3.5057055605109206,0.5798598997447588,10.999387184157708,2.1627518738632805,3.5376091670249146,0.5675034537588235,3.291236659482938,1.1734420854003824
3.8148712755458862,0.9186716412680782,0.5200410270010424,0.28900311225353736,3.783792916401591,0.6046315767123279,10.999109475675274,2.0928513691493476,3.8148712755458862,0.5953646723201043,3.324685193490258,1.140193500251693
4.090658007432245,0.932150465100505,0.5250857911628959,0.28950408703085345,4.060051207422944,0.6251887632484098,10.99884312721653,2.057107709282184,4.090658007432245,0.6186626907430807,3.3586999857702566,1.125833784610739
4.365283282121018,0.9524422775251732,0.5305616810863186,0.2902769960316776,4.335091989224221,0.6455060993899076,10.998585070329502,2.039158372393564,4.365283282121018,0.6390744566967437,3.3930758104486785,1.1213595964616117
4.639538895448369,0.9747338516931332,0.536429170469179,0.29325140178438047,4.609511549910558,0.6726568284863823,10.998351565199615,2.024618521588781,4.639538895448369,0.6577017905158251,3.4274227913553235,1.1188832325178946
4.912608599298352,0.9983493853184019,0.5425336946464006,0.294250984067139,4.88243008903303,0.6934805392916588,10.998118807860303,2.0244568508905885,4.912608599298352,0.6815698173968923,3.4620624905484245,1.1243579420539431
5.18297187031863,1.022984890238555,0.5490644497517899,0.2960014127446867,5.153538026280954,0.7116435814905901,10.997912822107978,2.0183315296674107,5.18297187031863,0.6963227417933108,3.496552566799976,1.1265705716161682
5.453130478066133,1.0493306588478628,0.5559616194758773,0.2979976776470114,5.424041684728449,0.7301615110995616,10.997721727412598,2.0212511854393704,5.453130478066133,0.7225098696651715,3.5310736263994844,1.1338564753113265
5.722982422005496,1.0762820866102332,0.563150677713698,0.30026880088620705,5.694006242243127,0.7505661832485767,10.997553160918626,2.0207080350443865,5.722982422005496,0.739565798504054,3.5654704692571166,1.1391935739846868
5.990378030111626,1.1015889433857622,0.5705387667166913,0.3011274926737168,5.961732018900296,0.7667974245984633,10.997410180857056,2.019242670552371,5.990378030111626,0.7596576718267652,3.5996960762470227,1.1440052647963488
6.2575330593367005,1.1271211288265457,0.5781863085752585,0.3026308357259529,6.228930922247747,0.7844846420276756,10.997280932049895,2.017851033982223,6.2575330593367005,0.7738116479483619,3.633960184773472,1.1487582165452226
6.522738678374352,1.1523730697783194,0.5861387608648522,0.3059288876690583,6.494619516286409,0.8062538716243279,10.997182030673814,2.0157142612856354,6.522738678374352,0.794026739898083,3.6680180387796,1.153097830940908
6.787093213018471,1.1761151084162633,0.5943029228175241,0.3091324128367865,6.75913367806955,0.8269248665170983,10.99709704422628,2.0145557139364088,6.787093213018471,0.8067345201327263,3.7021597561843484,1.1578816324809027
7.049228055226498,1.1989871233328748,0.6026519507501641,0.30873922258921505,7.021651632331323,0.832622255163263,10.997036231667286,2.0121848170884613,7.049228055226498,0.8197116251610983,3.7362740918502633,1.1619242621637362
7.311808454556297,1.2227120404904899,0.6113087251451331,0.31213176610320287,7.284423945810501,0.8550535555058617,10.996997392389789,2.015880186295707,7.311808454556297,0.8402423674300274,3.770437887155411,1.169455877734012
7.57397297207212,1.2459902589886058,0.6201503465985783,0.3152139359030867,7.546546478340914,0.8736086431033769,10.996985978315161,2.0199063213620523,7.57397297207212,0.8574626017648794,3.8045597722465536,1.1771809370315889
7.8334355992314375,1.2682119162729395,0.629238364519804,0.31764812001023846,7.806632761260822,0.8873449440637771,10.997011135958045,2.0202394433330175,7.8334355992314375,0.8745286492418123,3.8384579512689654,1.1827774712342995
8.090047087705214,1.2891075605802456,0.6383807587635582,0.3195143333445209,8.06378377238102,0.904351118102317,10.997064813032054,2.0160007078738995,8.090047087705214,0.8830443735245125,3.872275044614727,1.18561154237902
8.346079863831552,1.3101550883640556,0.6477887682380872,0.32138388384455224,8.320086549630007,0.9156089772864608,10.99714637869538,2.0146185232322087,8.346079863831552,0.8985940622950997,3.906080526882588,1.1900716714220834
8.599368043248644,1.3306418390204118,0.6573960410638585,0.32347072107696173,8.574089960106683,0.9289620065784858,10.997255172535336,2.0176731891609174,8.599368043248644,0.9160535201709032,3.9399248272999006,1.197116716833437
8.854484495286783,1.3507534710977929,0.6671500022268992,0.32626029002992407,8.828848865312827,0.9460637388235263,10.99739514876792,2.0182292901437022,8.854484495286783,0.9258008900484545,3.9737489489029296,1.202641708917825
9.107305314889054,1.3704966354974204,0.6770852907044143,0.32954909932446663,9.08204181214178,0.9630197056173515,10.997577294045737,2.0140471825687807,9.107305314889054,0.9387065036981178,4.007331303253752,1.2053555606188389
9.358443275790757,1.390145713225261,0.6871523604381108,0.33126860085730975,9.3335351470341,0.9728894278887833,10.997784311437359,2.0210714434793298,9.358443275790757,0.9610288442834072,4.041079051982162,1.2147181739694208
9.606907290670243,1.4089942986570945,0.6974360712640615,0.33517968836546724,9.58276458736523,0.9923829125795187,10.998029581528886,2.01907694908215,9.606907290670243,0.9643878046939917,4.074703947839239,1.2186271639174668
9.854020999037166,1.427616451033727,0.7076501992317435,0.33428891994318183,9.82992832395278,0.9939006426053167,10.99830834646134,2.0223687594864876,9.854020999037166,0.9812935449107105,4.1083836286556625,1.2257044591505246
10.100296743034171,1.4448638912822214,0.7182493384771882,0.3347196721008524,10.076743844855542,0.9959061051937046,10.998628018781142,2.0246088636833233,10.100296743034171,0.9967072473286488,4.141933023851474,1.2321636378634844
10.34703435957205,1.4632221419333682,0.7290804480695741,0.33799126011935215,10.323649992655344,1.0128231368202913,10.998988265828261,2.0208370416349117,10.34703435957205,1.0029162195494934,4.175336800888572,1.2349209235032248
10.590929345698028,1.480492355157621,0.739932590569682,0.3412702174447163,10.567967022163137,1.0307713839804302,10.999383309709884,2.026825220667909,10.590929345698028,1.0256291450859862,4.208822731832198,1.243615337935897
10.83061264622556,1.4969971823741024,0.7510730630338404,0.3459421988334284,10.808808379454295,1.0474697604064143,10.999823198209596,2.023460243092048,10.83061264622556,1.030686012282041,4.242076834440387,1.2465566755654602
11.073417028429088,1.5143555051904416,0.7621853108678602,0.34600039123161563,11.050908262591266,1.0481440668083324,11.0003002536076,2.022260760503525,11.073417028429088,1.0412792991911424,4.2753547623149935,1.2507611569656634
11.311365407007502,1.5307647171670113,0.7734520359597701,0.34943376618689814,11.289853277267813,1.0674129767826794,11.000817936887003,2.0208927115231616,11.311365407007502,1.0492400021569397,4.308639753327156,1.254809339628404
11.551107817130568,1.5473372264681666,0.7847354256974592,0.3523140979923436,11.52911678516005,1.082006917804948,11.001382781390388,2.0162671505217173,11.551107817130568,1.0608617560089495,4.341700643047941,1.2568425268426755
11.790535429276034,1.5641119621692288,0.7961215080913989,0.35600513832765046,11.768383833566139,1.0987714478663975,11.00198787707485,2.014155961373589,11.790535429276034,1.0708825758746443,4.3747867059604815,1.2603631777480944
12.025394070161031,1.5789705056438754,0.8077199256732376,0.3583072121838751,12.00429477466485,1.1042263984403253,11.002635720661218,2.013235670539121,12.025394070161031,1.0795323521637008,4.40789801934803,1.2645748236667929
12.261429209760461,1.5949588814138478,0.8193832597511066,0.3567266356168231,12.24025355549134,1.0968150014337463,11.003327945744514,2.0173201431730314,12.261429209760461,1.096973033991906,4.441017839054384,1.2719294329604671
12.49376928203129,1.6087669374816334,0.8312530725553037,0.3644549800462299,12.473575476922063,1.136759989487181,11.00406931524649,2.021425839366124,12.49376928203129,1.1176649130888472,4.473915925574355,1.279347583695445
12.726567446764536,1.623928966097898,0.8429103042284197,0.36325215411155454,12.705803578402092,1.1297210001184648,11.00485576318397,2.0174251935237995,12.726567446764536,1.1183759394264647,4.506664697208358,1.2815640676791824
12.956315575541433,1.6377608088713052,0.8550908707827926,0.36825690345523565,12.93668291688652,1.1465620397163818,11.005687144105037,2.008844310484574,12.956315575541433,1.1132681122432109,4.53943537957594,1.280750956783452
13.186734573900273,1.6514823100180422,0.8672144056926836,0.37050019108987386,13.166963300658395,1.1552804730560464,11.006564075802345,2.0192416780694913,13.186734573900273,1.1439505313803604,4.572448087362226,1.292035100359335
13.413772989427345,1.6644913852131946,0.8794862412562665,0.3735559378231057,13.394748639073812,1.166923550284455,11.007493598171651,2.0177939134852276,13.413772989427345,1.1463789965939886,4.605173255627991,1.295773914683291
13.641254686240755,1.6785189780218248,0.891921947339511,0.37389901279726623,13.622306898848457,1.163162877585949,11.008471686440561,2.020594160348059,13.641254686240755,1.1653983163072954,4.6378217439729035,1.3022343637879767
13.866902371791467,1.6923585081517176,0.9045410610472976,0.3814266361534706,13.848522193345143,1.1983027195627536,11.009497907907354,2.0180424341324144,13.866902371791467,1.1614378190127508,4.670496738231259,1.3051513810860285
14.090072372538064,1.7043102692613514,0.9169592566097797,0.3832789766244053,14.071843621405602,1.204268940787427,11.010576551612273,2.0141979954848312,14.090072372538064,1.1748315500573627,4.70295225582146,1.307252127311674
14.3172807657342,1.7176716911313485,0.9296580371290774,0.3869145955373246,14.298321709069521,1.214784527463719,11.011704303547122,2.016536988948499,14.3172807657342,1.1878461105260703,4.735502973591315,1.3132985029312718
14.53940927983187,1.7298230552792975,0.9423668931963691,0.38656826878124645,14.521329603979401,1.2102394164974928,11.012884961644927,2.0173804491936638,14.53940927983187,1.1967001826515289,4.7679744822438925,1.3183575496773945
14.758809664293983,1.7412058815665774,0.9551455102989962,0.39050494824259663,14.741541390222961,1.2316770244182977,11.014117876528818,2.0208436278975803,14.758809664293983,1.2149558940205891,4.8003365338177675,1.3251402648760975
14.979261268907923,1.7538151364245005,0.9680207652010049,0.39505125564729343,14.961767422029396,1.2479723475480171,11.015402264029776,2.0173171203323843,14.979261268907923,1.208656450711694,4.832682653179149,1.3272539796819076
15.198029367650703,1.7650141667314947,0.9808466655151205,0.3950038650131375,15.180643683443655,1.2445354815823935,11.016740754151952,2.0174049860502086,15.198029367650703,1.2286126229330814,4.864874901492915,1.3317706412828023
15.414034901650444,1.7768063193464536,0.9939129745214408,0.39908806263253244,15.397473935209147,1.2608385081486393,11.01813316746267,2.014328746441997,15.414034901650444,1.2228767061305261,4.897155691520173,1.3340905337360713
15.6254078397481,1.7876798658254696,1.0069166409593115,0.3993827914731671,15.609852771330385,1.259889996949924,11.019583431709494,2.0209550965193963,15.6254078397481,1.241647292054381,4.92957254932519,1.3428337012122287
15.840984316161357,1.7999044615676107,1.0203261948294946,0.40598296484396695,15.824988876853753,1.282822146030399,11.021086941276046,2.021863087813547,15.840984316161357,1.253904474273744,4.9616955482608995,1.3478404759765805
16.050167271485204,1.8099503933908831,1.0335299650992287,0.4065090735837792,16.0351657178416,1.2821917786721264,11.022646659518022,2.0247211547601243,16.050167271485204,1.2615555322495542,4.9938741739401475,1.3540859156393572
16.261506378653564,1.8209376412104281,1.046758629739397,0.409176932284476,16.246146655172275,1.2959483032269932,11.024258069861055,2.0193944812671276,16.261506378653564,1.2654243905468088,5.025761839404768,1.3548641895769395
16.470372184547863,1.8316023331807039,1.060066760066338,0.412447338949744,16.455372737243643,1.3075712293495678,11.02592566159683,2.0182410654467065,16.470372184547863,1.2755953747202993,5.05767234717795,1.3583721667824102
16.673780738761852,1.8401273910573175,1.0734769757647074,0.4140721394138432,16.66007645733394,1.3091075190458534,11.027648146328163,2.0165484340215807,16.673780738761852,1.2844277737716747,5.089476680110785,1.3614906416436696
16.881873345949703,1.84974631322034,1.0869488649088568,0.41502719376077807,16.8673471835897,1.3109529336002408,11.029428482181824,2.017739910119594,16.881873345949703,1.2902812658670255,5.121365080601127,1.3664923344893667
17.0895751341079,1.8602791965171146,1.100412048270619,0.4170175941849734,17.074813381609204,1.3212129527172236,11.031266560503028,2.023462562093707,17.0895751341079,1.3118029440589067,5.1531607802896575,1.3745966327859074
17.294903166625083,1.8705244211065026,1.1141684581011668,0.42117170868005355,17.280735001917808,1.3317852294153936,11.03315743421284,2.016833970205023,17.294903166625083,1.3044059140247473,5.184716640705017,1.3742722940268577
17.497149107106047,1.8790639788305281,1.1278852517823852,0.4222817282148507,17.483684987966782,1.3326376277028016,11.035110928699464,2.0176859249783914,17.497149107106047,1.3156377541866608,5.2163927106813475,1.3789765729995327
17.692605052218543,1.886679232613724,1.1417156457401705,0.42692704765357514,17.680875779382344,1.3516507430274234,11.037125005105823,2.0174074316143296,17.692605052218543,1.3182618102868713,5.248062066495522,1.3828787279433394
17.89061797319062,1.8944660969433118,1.1556201464821603,0.42909025636634984,17.878577282713167,1.3533287885872403,11.03919709387806,2.01811066992633,17.89061797319062,1.3280412768393988,5.279670877917276,1.3874534549563518
18.08978662676416,1.9030592928752426,1.169657066836892,0.43348007107645437,18.077447362528975,1.3682492080527313,11.041328618097124,2.0214745840832267,18.08978662676416,1.341658660198539,5.311235503077066,1.3938549184585753
18.29296006770329,1.913590678205438,1.1835640669179914,0.4333657455982872,18.2793524483096,1.3649522996035932,11.043516092848458,2.021965340610223,18.29296006770329,1.3499276507512743,5.342645737346315,1.3982725857535256
18.496446086145603,1.9241420335202388,1.197659958619121,0.437728382421377,18.482544278883218,1.382321011837807,11.045763745045695,2.0227798985871894,18.496446086145603,1.3592940440818717,5.373984454892009,1.4028838032037534
18.691270318910842,1.9321719868292093,1.2117363388426545,0.440298693326221,18.679111162426107,1.3892202683087098,11.048073468017394,2.0152530893667238,18.691270318910842,1.3459778380768317,5.405273334231455,1.4016267061012992
18.88430035487212,1.939978399642743,1.2258569809575242,0.4415869808656018,18.87287895187817,1.3906978573622681,11.050451855630145,2.0164725341016227,18.88430035487212,1.3597490766460232,5.436670841632063,1.4064209093039632
19.07702691058761,1.948248309677345,1.2399826362109334,0.44267500511438046,19.065744741310947,1.3943893889424133,11.052883955777386,2.0104977420463976,19.07702691058761,1.3600182126644305,5.467833552100972,1.406202241905981
19.26611200635668,1.9555745986163582,1.2545088393681403,0.4487056136926033,19.25591153074227,1.4111887905286693,11.055381580713934,2.0171511434309344,19.26611200635668,1.3884821747389595,5.49903778137831,1.41480843446302
19.456600210170876,1.9642221221993197,1.2689262873802936,0.4514623475521744,19.446121635741587,1.4175879062754244,11.05794377324982,2.020799056922775,19.456600210170876,1.3867017584601538,5.530278097179661,1.4212569798344707
19.64057934516116,1.9719067209058552,1.283353351587309,0.4549408973112989,19.63144148982119,1.4299024992199223,11.06056290258536,2.024240926912882,19.64057934516116,1.4019934280903468,5.5613536637435415,1.427595411268014
19.825988903685502,1.9797664711780556,1.2977778409424194,0.45868006007162454,19.816680715841336,1.4425034605808864,11.063238830373905,2.0290095174284413,19.825988903685502,1.417307896680549,5.592322885735763,1.4348685350054518
20.00977556681294,1.987754278530794,1.3121858362430348,0.45935216958091174,20.00064980686531,1.4401203429128735,11.065976694330312,2.0275343237911096,20.00977556681294,1.409234271036894,5.623266769751095,1.437659837535909
20.190905262292937,1.994747674087507,1.3267041214060062,0.4592325838785974,20.182443011685965,1.4352410930626724,11.068782395910375,2.0278279094791594,20.190905262292937,1.4128915825276422,5.654252329708435,1.441670626374027
20.3751026234521,2.0038070205511542,1.3413408759966885,0.4616363203046389,20.36609220546219,1.4436902722327125,11.07163417188186,2.018873961246754,20.3751026234521,1.411615968495541,5.684921179942953,1.439117000430364
20.55916433137654,2.011216096875217,1.356102010376876,0.46556393535825624,20.55001690327619,1.4551670134929793,11.074559527114406,2.02005268699504,20.55916433137654,1.426181163661416,5.715714031195487,1.4437196528256668
20.73830601938004,2.017526263951703,1.3707287217029234,0.465371089744597,20.730036832326338,1.4514207392458054,11.07755886641102,2.028002624550801,20.73830601938004,1.4411995978996344,5.746603128685584,1.45314682296914
20.91486738900906,2.024754262786431,1.3856048621940327,0.4676898583255135,20.90749460680198,1.4556226190959072,11.080611189783012,2.0304283435532278,20.91486738900906,1.4478327927907455,5.777289224899047,1.4586453006543758
21.09141919398047,2.0313445830466756,1.4004913439692208,0.4691564377229449,21.0841626215417,1.4581078923340425,11.083717451214318,2.029665513098094,21.09141919398047,1.4537183816694077,5.807815167923502,1.4618393070085738
21.265106242617303,2.0381019822605793,1.4154711511782747,0.4756519597239901,21.25849935587987,1.4839887276074293,11.0868962818928,2.030954631336271,21.265106242617303,1.4547674635582974,5.838432388498581,1.4664434629249423
21.435115071906626,2.0448908165902835,1.4303796776429238,0.47645582515986834,21.429277251055595,1.478535382136525,11.090128368212735,2.0263638437958003,21.435115071906626,1.4538447386850843,5.868868500406943,1.4667970875678864
21.604701507897545,2.050083204796596,1.4454461578665196,0.48004389296007766,21.59919933023048,1.4891199180449322,11.093426739421318,2.028127955768924,21.604701507897545,1.4685975062382575,5.899313191688751,1.4717255892684158
21.772085749970024,2.055230177181925,1.4603186820399263,0.4830582323717221,21.76690883600898,1.502588998615959,11.09678029676283,2.025508201021517,21.772085749970024,1.4686766524435946,5.9296244556665325,1.473449834816186
21.937103815421803,2.0608439468220516,1.4753166553363866,0.4864654994115603,21.932480255925086,1.5097270800018772,11.100187047933439,2.0205821926982233,21.937103815421803,1.471754082603193,5.959789390962616,1.4734669060220136
22.10903824632468,2.066254001601183,1.4904433263387578,0.4888422957404221,22.102935959249603,1.5107463678068334,11.103674213786038,2.0239557325194926,22.10903824632468,1.479974401788574,5.990133283735789,1.479469230005596
22.27526496858594,2.07046195650378,1.5053156590319143,0.4904166244294092,22.269889702998615,1.521039708598205,11.107212268066844,2.0210189522963438,22.27526496858594,1.4814729751513749,6.0202601970694625,1.480872794607487
