coupler,coupler,$D^a [mM]$,$D^a [mM]$,$I_{islet}^a\ [pg/islet]$,$I_{islet}^a\ [pg/islet]$,$\gamma^b$,$\gamma^b$,$I_{cell}^b [pg/islet]$,$I_{cell}^b [pg/islet]$,$G^b [mM]$,$G^b [mM]$
2.6971902374048526,1.069479034118772,0.5037710095488095,0.22336490154146488,2.256233790034529,0.44697984191403645,11.000480765861791,3.4673411470965583,2.0604389667196807,1.414908999627325,3.2065289782386546,1.868606756119143
2.9781223305689766,0.9641818369477972,0.506476751761615,0.2748522063832638,2.4082282798226826,0.5656911620934657,11.002025392511088,2.6219481758856484,2.83623187176879,0.5306738597670926,3.2357180725031442,1.4146029749096551
3.258165178823426,0.9249542834003429,0.5089638760482416,0.2841474465086447,2.5386115392051902,0.6039396656502362,11.002299332779607,2.3110033329091286,3.243305857813741,0.5439692130290673,3.267215183566488,1.2502903240201266
3.537609167024895,0.9138620020257574,0.5116797862964944,0.28708350492147955,2.6717061538750375,0.6258742924648907,11.002318624986252,2.170441975275571,3.5484799793865665,0.5831403697363804,3.300490436802968,1.1785897062152482
3.8148712755458636,0.9186716412680782,0.5146431955207252,0.2892954583045996,2.8090216429576027,0.6459751253703885,11.002274925097833,2.094317683531598,3.8310461522506283,0.6046901019694493,3.3346667941143906,1.1421554247278556
4.090658007432203,0.932150465100505,0.5178593157146499,0.28796952725442426,2.950920777598523,0.6575644849533538,11.002197187138373,2.0612511549762615,4.1079207432334215,0.6320673301767264,3.369471513159165,1.1293966695879507
4.36528328212097,0.9524422775251732,0.5214251694612672,0.2898955139818449,3.1010321007022847,0.6762687830586789,11.002108721972188,2.0476275445396577,4.3826860038596465,0.6566903509585463,3.404543385688943,1.1274537716427
4.639538895448336,0.9747338516931332,0.5252560843017721,0.29099513445726294,3.2558666366020432,0.6936142577274641,11.002043373480817,2.0340524672040816,4.656698645154282,0.67768444260038,3.4393937333678313,1.125686178083553
4.912608599298332,0.9983493853184019,0.5293925790104879,0.29237771846377264,3.4166635601774207,0.7114435404038641,11.001973106413692,2.021517567709371,4.929658812478953,0.6903230027936521,3.474327376282838,1.1243991016850456
5.18297187031859,1.022984890238555,0.5338328360862069,0.29372675586196934,3.5830684396783234,0.7291843854537261,11.001897509773944,2.017947216051805,5.200278686197253,0.7103553930217192,3.5094049663255906,1.1280603737308725
5.453130478066101,1.0493306588478628,0.5385202940500321,0.293438853522397,3.753062305688112,0.7429728581559458,11.001838196490503,2.0189526775720927,5.470213879486505,0.7353991125654271,3.5443682033760116,1.1343449458535402
5.722982422005464,1.0762820866102332,0.5434918697813457,0.29449908987728707,3.927786834153059,0.7599982941011701,11.001788803610479,2.0230210788182013,5.739762425795154,0.7581109118967515,3.579282763651696,1.1423470828028977
5.99037803011163,1.1015889433857622,0.5487439635085682,0.29524159501234404,4.106962521132011,0.7758503755413361,11.00176375218031,2.018798740324203,6.007262078826964,0.772484603847099,3.6139422602243476,1.145648281793121
6.25753305933666,1.1271211288265457,0.5542766741574312,0.29634291416896263,4.290535945911255,0.7924936880415175,11.001742657931977,2.0231146829886253,6.27420655828855,0.7954714126803087,3.648684604170662,1.1537293367143142
6.52273867837435,1.1523730697783194,0.5601164584527345,0.29833110005235364,4.479095792024683,0.8112550719261977,11.00174453793502,2.0196138904775722,6.539439644721081,0.807073144186033,3.683251661477339,1.1573128057248339
6.787093213018478,1.1761151084162633,0.5661600449124679,0.3018934830581931,4.669567471467581,0.8349690268819816,11.00175384722169,2.021281448086725,6.803701264309802,0.8237448516215439,3.717933993380614,1.163777130441546
7.049228055226543,1.1989871233328748,0.5723654069505312,0.30211110619404236,4.8607254958787705,0.8488295647290651,11.001797069265981,2.0218920801858604,7.065944448038689,0.8461047547015949,3.752345972695289,1.1696962594802303
7.311808454556259,1.2227120404904899,0.5789014262559632,0.304537778512409,5.057438795570751,0.868122350238504,11.00185220260875,2.0213674612405095,7.328154915976006,0.8564642069298619,3.7868245468858825,1.1748369904990776
7.573972972072107,1.2459902589886058,0.5856211484362378,0.3053833876688239,5.255698899046494,0.8830604010530517,11.001943960526546,2.0170698664970264,7.59001753701287,0.873288654777839,3.821028574614325,1.177805797812151
7.833435599231369,1.2682119162729395,0.5925793150848795,0.30738700604928537,5.4568378217958955,0.9010913213389479,11.002049644105185,2.0226052672118073,7.849677899500174,0.8968911163379657,3.855315732521342,1.1864538170426353
8.090047087705193,1.2891075605802456,0.5997153072021939,0.30775208023746836,5.659193525761982,0.9139725754623303,11.002179666819524,2.0228993567366085,8.106595408165754,0.9064128427079692,3.8895401064002213,1.1919716039910355
8.346079863831527,1.3101550883640556,0.6071696718889085,0.3107780360820212,5.866369961983859,0.9342162319470009,11.002337670261172,2.0233622279968824,8.362521673887702,0.9212147648757067,3.923704351532575,1.1975675229546199
8.599368043248644,1.3306418390204118,0.6148272671869751,0.31410251581960164,6.075296548137391,0.9555470877481308,11.002538460505594,2.0125231344386174,8.616015653121757,0.9282875930704907,3.9575102276215066,1.1964553822027468
8.854484495286828,1.3507534710977929,0.6225384910662805,0.3151587241171011,6.282435336672844,0.9701708253987691,11.002746327912975,2.0183635996870737,8.870558674937714,0.9480880683275779,3.9916941859963315,1.2051173237895068
9.107305314889091,1.3704966354974204,0.6304865964097655,0.31597622919579404,6.492279586491226,0.9829337294879696,11.002996715760013,2.0129053882164554,9.12340235245566,0.9535099980536785,4.025616408399227,1.2070478197803696
9.358443275790755,1.390145713225261,0.6387162340292453,0.31802734702178836,6.7059116744345815,0.9991189269892058,11.003277305630194,2.0105435811531662,9.374608227378157,0.96733910967942,4.059528660250968,1.2107839682951125
9.606907290670232,1.4089942986570945,0.6471528662636709,0.32022734895314364,6.921383316656723,1.0158009340223053,11.003589619572256,2.0117364560211404,9.623333417592434,0.984163952839881,4.093415241370615,1.2166373138739095
9.854020999037155,1.427616451033727,0.6557122184359091,0.323788431536453,7.136677450331869,1.0372081728998028,11.003930703761354,2.0182843310910017,9.870485161418504,1.0020935357635332,4.127371081185896,1.2257045492799794
10.100296743034225,1.4448638912822214,0.6644300612711656,0.3249860382837893,7.352607988687942,1.050129022292183,11.004314047797266,2.017983676518895,10.116622378056961,1.0122535212309944,4.161116050606554,1.2306274511199649
10.347034359572032,1.4632221419333682,0.6733455002609244,0.32810276454370135,7.570260174614535,1.0692515118120092,11.00473290012232,2.015531686319695,10.362949472573739,1.0198753365668074,4.194820801841993,1.2341735683597201
10.590929345698015,1.480492355157621,0.6824511378628724,0.32975610907380476,7.789307089415778,1.082981360178002,11.005185309828844,2.018563617416702,10.607063313594846,1.0357811289759935,4.228585149078527,1.2410422053746504
10.830612646225601,1.4969971823741024,0.6916933246315868,0.3311240883962239,8.008489138787468,1.09584844211264,11.005676389793479,2.019282588681118,10.847348126363856,1.0449590755837488,4.26229571461956,1.2464686968943135
11.073417028429109,1.5143555051904416,0.7011243463053732,0.3335558258982385,8.22907846666864,1.1119294867425995,11.006216568734255,2.013304169288616,11.08932548639207,1.0554602123581207,4.295694748734548,1.2477802716289883
11.311365407007504,1.5307647171670113,0.7107396818666502,0.3368512361389905,8.450780085850804,1.1306692472328588,11.006787993587613,2.0133311422353732,11.327818855399602,1.0660669926252908,4.329243928597879,1.2526972002443852
11.551107817130543,1.5473372264681666,0.7203950169675286,0.33991024971868444,8.670727189662136,1.1489281454262434,11.007403012178107,2.0182662803728375,11.567011153405984,1.088812557470948,4.36269195044384,1.2607045486545139
11.790535429276078,1.5641119621692288,0.7301701932933771,0.340190420912412,8.890658520367595,1.1568120422959183,11.008060641338135,2.0166054868308434,11.8060770424667,1.0930319337605825,4.396026720956946,1.2645399077155106
12.025394070161047,1.5789705056438754,0.740180199669759,0.3423529952149395,9.11289336076875,1.170814388117853,11.008761272820784,2.0165250676145035,12.041508211530159,1.1070976300695248,4.429279182043574,1.2693428889249663
12.26142920976048,1.5949588814138478,0.7503803090076887,0.34577382611071006,9.336516094278139,1.1890721579306462,11.009506058126943,2.0133597097112452,12.277119630919469,1.1141790132534526,4.462427641131313,1.2721551905097859
12.493769282031225,1.6087669374816334,0.7606497113898798,0.34882311723081966,9.558948865066293,1.2062262768531145,11.010294808465915,2.018746262934555,12.50983725376865,1.140598512472115,4.495503986957564,1.2803833924734553
12.726567446764502,1.623928966097898,0.7709927691608912,0.35057937454535354,9.780386894231347,1.2185532921111495,11.011126410276047,2.0183304692359534,12.742308857472002,1.1428979371017096,4.52853308595604,1.2848556983993866
12.956315575541474,1.6377608088713052,0.7816157241201057,0.3522086933302374,10.004802071731143,1.2293779730499,11.012002644499239,2.025258619532235,12.972342755043965,1.1642574014189566,4.56157708040013,1.2940043004041506
13.186734573900281,1.6514823100180422,0.7922435966823617,0.3557908898086455,10.227014626233117,1.2482841378700935,11.01292636880519,2.01983899925308,13.202376810846555,1.1565970460588664,4.594506674385752,1.2951974887907718
13.4137729894273,1.6644913852131946,0.8030421979686294,0.3569752437151118,10.449945256797866,1.2573848265809313,11.013899042866266,2.0174732065953007,13.42975826630318,1.1703234394767073,4.627355313649631,1.2983394339807945
13.6412546862408,1.6785189780218248,0.8140126760453404,0.3589843375458219,10.673832810444173,1.2694408811340034,11.014920132182475,2.0129486060326927,13.656920602587533,1.1763336661846653,4.660111110111216,1.3000445095462576
13.866902371791534,1.6923585081517176,0.8251139783724034,0.3628632225681298,10.89778328593026,1.2883201362576844,11.015988562307353,2.0104605506976787,13.882604756287023,1.1811097563240769,4.692942717791324,1.3029858781463781
14.090072372538105,1.7043102692613514,0.836177975760249,0.36470706443732254,11.11863129615671,1.3000377703584391,11.017108423914783,2.0110900890749175,14.105995908736183,1.199825685993219,4.725632982710737,1.3079763573534526
14.317280765734159,1.7176716911313485,0.8475457483851817,0.3685251511810451,11.342869602798974,1.317650922439485,11.01827774282948,2.0098446084887036,14.332132089168576,1.204356921921534,4.758304774855149,1.3116853659610088
14.539409279831872,1.7298230552792975,0.8589559152072105,0.3693312399371241,11.565623370594357,1.3246596183033978,11.019498392578296,2.0163754913302125,14.554800042764233,1.2275255234444187,4.790959080233556,1.3204821600799996
14.758809664293997,1.7412058815665774,0.8705657277278466,0.37148676993136065,11.789593271704856,1.336271060286913,11.020769859873734,2.0192396792386704,14.774566991070554,1.2319011625805618,4.823586577980679,1.3268394650129849
14.979261268907834,1.7538151364245005,0.8823212394431547,0.3728332927419664,12.013848153514376,1.3447144509493063,11.02209420699092,2.021797831413055,14.994593299217357,1.2473499737742897,4.856053252650188,1.3330215843973385
15.198029367650665,1.7650141667314947,0.8940924985533564,0.3756549589461427,12.236111195092171,1.3592069909197773,11.02347060377722,2.0225411590024573,15.21332978742852,1.2523139136666928,4.888501904497497,1.337952402502949
15.414034901650426,1.7768063193464536,0.9061127445870966,0.3793515771481063,12.460230235722902,1.3757008717105756,11.024900661059949,2.0255093819556764,15.429613455815556,1.266242171398978,4.920898070367894,1.3443490342878073
15.625407839748178,1.7876798658254696,0.9181048076193247,0.3824360558084898,12.68142253347494,1.3906911584448953,11.026383203500178,2.0146653184479657,15.6416876005512,1.2512533701572282,4.953140051541469,1.341498792008734
15.840984316161332,1.7999044615676107,0.9301339007277052,0.38629133911371605,12.901038534073757,1.4083455136988103,11.027921670802712,2.015489982856383,15.856302245403903,1.2732992115463795,4.985422819399278,1.3464043361978517
16.050167271485147,1.8099503933908831,0.942255140803578,0.3872806523853922,13.119835475915666,1.4146109853970479,11.02951333343377,2.0175866502091524,16.066278874092703,1.2914381047372343,5.017539066777181,1.3521740756706042
16.261506378653493,1.8209376412104281,0.9544864652822831,0.38959445743406707,13.338384684558312,1.4259424110607979,11.03116035497233,2.0148337762387643,16.27706361183314,1.281555341407261,5.049766925125595,1.3545734458489018
16.47037218454791,1.8316023331807039,0.9668639466575767,0.39545361549257246,13.557134504986951,1.450344875438648,11.032867244980267,2.0169768686505885,16.486071624846513,1.290997123548748,5.082078005290896,1.3602511611201105
16.673780738761778,1.8401273910573175,0.9792517643279441,0.3981289324081895,13.773665363520125,1.4626060366987197,11.034627529384588,2.016658326068586,16.690311953853058,1.309044612134874,5.11407058122392,1.364343016062252
16.881873345949593,1.84974631322034,0.9916854672675101,0.3987842106824163,13.988946025798308,1.4672315127785247,11.036443930060338,2.02133196794631,16.897336004359822,1.3237189973237589,5.146100770454915,1.3717613636016746
17.089575134107864,1.8602791965171146,1.0042445854952073,0.4004024221077368,14.20430187389801,1.475312124898749,11.038315056369788,2.0235767618684433,17.10460650957008,1.3342099947478718,5.177988153971454,1.3775268495500452
17.294903166625048,1.8705244211065026,1.0170012724291404,0.4024718337121856,14.420741257627906,1.4845392885632538,11.040244735039943,2.022022261227978,17.310055431476716,1.3307231341770624,5.209891474360006,1.3806298178524974
17.497149107106146,1.8790639788305281,1.029861885477922,0.405298355511002,14.636688844126605,1.4968329748910127,11.042225561038824,2.0138185606620613,17.512660238974362,1.3375779929704548,5.241449519469174,1.3792122770481483
17.69260505221853,1.886679232613724,1.0429195463625187,0.4076003499211847,14.853224770110643,1.5065156156410653,11.044270191172718,2.0152489246056486,17.70931332825096,1.3459756630613458,5.273238117538966,1.3842779169439614
17.890617973190523,1.8944660969433118,1.0559187890278423,0.4111399904734006,15.066688721652499,1.5219443072446401,11.046373399343734,2.019880737173409,17.906771343133943,1.3617105983925235,5.30497708551641,1.391561873780737
18.08978662676417,1.9030592928752426,1.0689454202310131,0.4126388433920184,15.278430284274103,1.5290148427957833,11.048538197083978,2.019307187187613,18.105315402382626,1.354811834290838,5.3367518556098466,1.3952023130079558
18.292960067703376,1.913590678205438,1.0821299488581593,0.4154718779419343,15.490744893207827,1.5407063814937652,11.050759630762961,2.022161588509032,18.307273071082527,1.3779185357279988,5.36832781219715,1.4012753665724362
18.4964460861456,1.9241420335202388,1.0953038892274172,0.41896106242676523,15.701205019219163,1.5553358355269977,11.053042898261388,2.0238198551698705,18.510158696342856,1.3823819584010961,5.399892242931497,1.4064672421483926
18.691270318910846,1.9321719868292093,1.108618687042123,0.4205523968584669,15.91165371117838,1.5618690298162876,11.055383876914295,2.026701439662612,18.706341879631093,1.3990024249891153,5.4313047959176615,1.4125236187074124
18.88430035487202,1.939978399642743,1.1220239103597442,0.42441657457886595,16.121415473955835,1.5774096410489988,11.057784060297688,2.0283582519034327,18.89972874192374,1.4054266693904407,5.462659902866206,1.4176860314078363
19.07702691058768,1.948248309677345,1.1354423780121656,0.42619868931519594,16.329348148787563,1.5849074111849561,11.060245097670284,2.02431127620459,19.092318258373584,1.3982225977683165,5.493979314162672,1.4187976529532917
19.266112006356707,1.9555745986163582,1.148905676097509,0.4285495949828965,16.535874766225536,1.5946189230214647,11.06276532716509,2.0250103796991534,19.28185000626457,1.4162462779131086,5.5251939905524186,1.4232472822601594
19.456600210170837,1.9642221221993197,1.1624982357005507,0.428714832512105,16.742285192225125,1.5953405244364676,11.06534468063777,2.021983684500622,19.471856195590757,1.4156791291475277,5.556335976381889,1.4250271896455908
19.640579345161143,1.9719067209058552,1.1761490493887075,0.4307004000907294,16.947418619295888,1.6035066114295355,11.067986092588065,2.025923821975104,19.65679556171986,1.4356677096419286,5.587444610544538,1.4317127178289992
19.825988903685502,1.9797664711780556,1.1900570296463642,0.4347731591944855,17.154000263265882,1.6186152248116612,11.070683114316507,2.029702398925844,19.84181840803656,1.4495610987471907,5.6184236926297135,1.4382838952672323
20.009775566812934,1.987754278530794,1.2039953611081766,0.4412937899157386,17.358913311206784,1.6436629219836802,11.073444074096656,2.025438402019048,20.025585832246925,1.4340501069688845,5.6494230089296105,1.4390632939752284
20.190905262293075,1.994747674087507,1.2177127453711387,0.44188874891071295,17.55870896837418,1.6465699658261537,11.076262781321343,2.0248851237442054,20.206993801711874,1.4504906836799183,5.680290519157716,1.4425000049164116
20.375102623451912,2.0038070205511542,1.2316243317218234,0.4452000429846525,17.75928327491663,1.6589177926868468,11.079148052273615,2.0193260831958395,20.3903494203244,1.4381106877021892,5.71119712347232,1.4422829721185144
20.55916433137658,2.011216096875217,1.2454553768588745,0.44563539900199584,17.9570786088764,1.66076703649343,11.082094410819494,2.017719308735297,20.574008253483086,1.4523567402914042,5.742005609636141,1.4448992739307942
20.73830601938016,2.017526263951703,1.2595233503949215,0.4493104460348156,18.15610285026091,1.6741326135897927,11.085110433423651,2.016889168669431,20.753796650671266,1.4529917216021462,5.772860072172267,1.4480163610296692
20.914867389009128,2.024754262786431,1.2736951814763358,0.4522350019369731,18.354511044216636,1.6845360962945022,11.08818626652015,2.018380282502593,20.930743948541416,1.4671523447730868,5.803608695566264,1.4528146696087239
21.091419193980375,2.0313445830466756,1.2878499377989943,0.45123063918185136,18.55081378280609,1.6802716009946186,11.09132250884777,2.0194985905475438,21.107097273303612,1.4745845635819177,5.834282775036574,1.4573246392221473
21.265106242617268,2.0381019822605793,1.3022551184548208,0.45947572903959716,18.7483349852412,1.7111033302398944,11.094526980693079,2.0231571147802163,21.281062844912885,1.482291828945661,5.8649856192890715,1.4636365320165976
21.43511507190657,2.0448908165902835,1.3163762923535203,0.4572896142564434,18.940147316716363,1.7026136235934697,11.097794231646462,2.0266031285014967,21.451607168370717,1.4897236685229602,5.895636775517527,1.469791261805066
21.604701507897552,2.050083204796596,1.3306823450566936,0.45876392447528586,19.132360755740432,1.7075747793675742,11.101111585186636,2.023232413500345,21.621108127818687,1.489549171836198,5.926084469084603,1.4709972170927108
21.772085749970003,2.055230177181925,1.3451869879864777,0.4639449472589272,19.325011299726313,1.7261673410334375,11.104501039457515,2.0220175671533904,21.788668510885294,1.4888974348831563,5.956612550739665,1.4737025091377327
21.937103815421768,2.0608439468220516,1.3595796894964345,0.46725533065017266,19.51424725395434,1.7382439283224183,11.107942057251359,2.021158912659814,21.953930130362252,1.502395662391313,5.986956111939305,1.4766889409748325
22.109038246324694,2.066254001601183,1.3740639633214593,0.46810776924219755,19.70292985899873,1.7402047640091178,11.111452595740566,2.024659719035044,22.124240684400473,1.5121871940519853,6.017348423119308,1.4828181639028915
22.275264968585994,2.07046195650378,1.3886499062852908,0.47060467543735784,19.891047365144246,1.748607032313416,11.115014959292981,2.0271210384553053,22.29101877337274,1.5260217607549458,6.047553595433767,1.4882043143731225
