coupler,coupler,$D^a [mM]$,$D^a [mM]$,$I_{islet}^a\ [pg/islet]$,$I_{islet}^a\ [pg/islet]$,$\gamma^b$,$\gamma^b$,$I_{cell}^b [pg/islet]$,$I_{cell}^b [pg/islet]$,$G^b [mM]$,$G^b [mM]$
2.6971902374049663,1.069479034118772,0.5037707339739578,0.22186118173224853,2.3541939458594707,0.4438302786492424,11.00028714938876,3.4865934722204215,2.0062892455610486,1.4794617115258706,3.2060137503431494,1.878964580914284
2.9781223305689726,0.9641818369477972,0.5068469462722739,0.2734183300761886,2.5909578446572743,0.5485820731850747,11.003140322541494,2.612385066205302,2.437033255089953,0.8744674646886016,3.2387657818235533,1.4091936875149678
3.258165178823427,0.9249542834003429,0.5098943433628683,0.2845887411734426,2.811030233441543,0.5946801036321512,11.005569047882533,2.3103941144073272,2.9244169268439184,0.7022816031304018,3.2774555076672374,1.2498418047625401
3.537609167024885,0.9138620020257574,0.5132850042451319,0.2855884179100929,3.035710173094533,0.6199640170053959,11.007260902479802,2.1706199895250555,3.355720453524595,0.6825528415195328,3.316224692204361,1.1792104820104754
3.814871275545854,0.9186716412680782,0.5171165356745993,0.2877042847543055,3.2693959234418477,0.6477522723528202,11.008427141709856,2.099619240423601,3.7318390897356553,0.7064556956206122,3.3545089237765113,1.1462883875003846
4.090658007432188,0.932150465100505,0.5213590275639503,0.28824859736876784,3.5097088880327467,0.671063778127891,11.009301116436797,2.0632227188448966,4.069205709502484,0.7429416468309643,3.3922667391073884,1.132434738178048
4.365283282120956,0.9524422775251732,0.5260239815094034,0.2908614191709246,3.756398869755236,0.6994983464982664,11.009991695624102,2.038266500604505,4.381455610808811,0.7718975419968127,3.42963302449346,1.1248121858014952
4.639538895448328,0.9747338516931332,0.5310072664214586,0.29072240766423135,4.00526686456384,0.7207268213183168,11.01055519834871,2.027601556726475,4.678395680835538,0.8015492782923382,3.4668275602356755,1.1250045397583703
4.912608599298329,0.9983493853184019,0.5364268717500398,0.29277787882769224,4.260100281890327,0.7458897520972074,11.011028383518564,2.0264442519850894,4.96544329837246,0.829921763059788,3.5039380152757835,1.1304094949121775
5.182971870318583,1.022984890238555,0.5421910377797808,0.2941971367222528,4.517135391013612,0.7691643455321534,11.011494027269014,2.0132393938607764,5.244662231087108,0.8493753718444762,3.540571445437387,1.1290848082596645
5.453130478066098,1.0493306588478628,0.5483828201678335,0.2969750925598844,4.778609417500606,0.794500994932757,11.011901410833916,2.017073668900911,5.519883195806748,0.8793189432832345,3.5772536899698566,1.1372235727629565
5.722982422005461,1.0762820866102332,0.5547938989621234,0.29732855307664774,5.038606319021879,0.8143549915143676,11.012292027287486,2.02154067270788,5.791928831786241,0.9069093146897721,3.6137432347632257,1.1457134123442907
5.99037803011163,1.1015889433857622,0.5614550183324601,0.2979003820352143,5.297963432839636,0.8343437643028765,11.012683843905675,2.0200793569930973,6.060959227145602,0.9292281583378897,3.6499428848776563,1.1508130230057325
6.257533059336657,1.1271211288265457,0.5685618675903807,0.3018125383718543,5.561903516335573,0.8610063747947121,11.013074717526699,2.0214473325490783,6.328210394419936,0.9556042594504754,3.6859370307267776,1.1574918548512896
6.52273867837435,1.1523730697783194,0.5758356876369342,0.30260890707072957,5.823231899397675,0.8794061411778014,11.013455908180573,2.0175581129331923,6.593678193066083,0.9717386443523693,3.7218183178197504,1.1610187053746184
6.787093213018478,1.1761151084162633,0.5834093209013432,0.3048803447220587,6.085460036232866,0.9012453977245857,11.013837516030073,2.0141113810983535,6.857914413470744,0.9892376809930445,3.7575990256347946,1.1647250026950124
7.049228055226543,1.1989871233328748,0.59120601192059,0.30658968975215967,6.346608629809576,0.9208783570117143,11.014205783195374,2.0196807812927022,7.120760202708259,1.0125901095967338,3.7934464599344033,1.1735876079000196
7.3118084545562585,1.2227120404904899,0.5993144519335659,0.30872374838195565,6.60909806163481,0.9400857581869273,11.014602522634043,2.014109418185764,7.382237887545032,1.0274286044372019,3.828979246139608,1.175971738216982
7.573972972072107,1.2459902589886058,0.6076237352976264,0.3108364879655766,6.870680445520712,0.9598776127258717,11.015006932022363,2.013883490059132,7.643169065600152,1.048646840358478,3.8644437650280348,1.1814226241447494
7.833435599231371,1.2682119162729395,0.6162534192713762,0.31381028452588683,7.133404318730867,0.9804903461943049,11.015421347315849,2.017246784160282,7.902584285311604,1.0724116625442235,3.8998053282938345,1.1889515903793118
8.090047087705193,1.2891075605802456,0.6250268693682963,0.3166071633407807,7.393463166853032,1.0018971464652615,11.015854689521703,2.015451144547923,8.159801370169125,1.0897117039886437,3.93496635112516,1.1933916151445896
8.346079863831527,1.3101550883640556,0.6339387293545036,0.3178827514182015,7.651026475266942,1.0174484831077835,11.016294140966833,2.014704600166096,8.415846735997306,1.1043126729868387,3.9701401833446166,1.1983490538746204
8.599368043248644,1.3306418390204118,0.6430832844053418,0.31974847831056774,7.908114330929868,1.0337482160230147,11.016762516265908,2.0149539693947904,8.669820286559336,1.1258705473160397,4.005092969017441,1.2039257043996305
8.854484495286824,1.3507534710977929,0.6524089367776437,0.3231279760354712,8.164430912987608,1.0555168159556767,11.01723384814584,2.0133347429725243,8.923573418650063,1.1346852979916775,4.040166834889698,1.2082261262662606
9.107305314889087,1.3704966354974204,0.6619796315303482,0.32550261999732927,8.42078622350991,1.071483993478611,11.017724138703583,2.0166784553761383,9.176411969096332,1.1513285219482408,4.075267808493978,1.215502825799091
9.358443275790755,1.390145713225261,0.6716398444727762,0.3256426429975999,8.67463310966368,1.080797900776481,11.01825044917565,2.0176638583663387,9.427556828875701,1.1701253276902166,4.110152897192155,1.2214043388281906
9.606907290670234,1.4089942986570945,0.6816580183139127,0.3292159397402915,8.930412967882706,1.1002284151467774,11.018800051119722,2.0177118971581964,9.676780766512447,1.1854488713777571,4.144963878440256,1.2266851705385389
9.854020999037155,1.427616451033727,0.6916667485404436,0.33143022836273833,9.181605690061621,1.1173324151573902,11.019386565871217,2.018398353618153,9.924105090386197,1.2073253860508886,4.179535000993226,1.2323809204769425
10.100296743034217,1.4448638912822214,0.7018518893465007,0.3324462277629239,9.431660194716084,1.1276885552454063,11.01998814907977,2.024527961840902,10.17027495136852,1.2274517573255244,4.214179554949565,1.2413135618598272
10.347034359572035,1.4632221419333682,0.7121776171937348,0.33533043171994437,9.680759273675987,1.1456507018953572,11.020626867367179,2.024670526327935,10.415594261602632,1.2418564678211244,4.248633707989761,1.2465679552390654
10.590929345698017,1.480492355157621,0.7227730905047998,0.33895386051444976,9.930394274129863,1.1636532742949837,11.021296257735315,2.0206696223427483,10.659521957163381,1.250298458878202,4.283008123202505,1.249193722789
10.830612646225594,1.4969971823741024,0.7334087770051206,0.34118106295662476,10.176570668442718,1.178232268178562,11.022002814381407,2.0160142432910058,10.900919555387063,1.2634084704439406,4.317210324569428,1.2513917326891564
11.073417028429105,1.5143555051904416,0.7442013509408262,0.34396942003639047,10.422070384831287,1.1940036318131633,11.022736285821368,2.018278499628542,11.142146614019543,1.2812810654023552,4.351464521662409,1.2578197356081575
11.311365407007504,1.5307647171670113,0.7550478193456162,0.34561145016604394,10.664756444111768,1.2059093425695515,11.02350607976686,2.022841536544651,11.38115010761101,1.3031024690644208,4.385587140128331,1.265696992288826
11.551107817130546,1.5473372264681666,0.7661590674002013,0.3495549711450664,10.908551658953302,1.224437376483164,11.024315928926677,2.019462335659389,11.619309553866412,1.3134538027347344,4.419518013970922,1.2685567618362772
11.79053542927607,1.5641119621692288,0.7773370355932765,0.3497639599633145,11.15053688709761,1.228937869324801,11.025154212528586,2.0217001744414076,11.857415351853511,1.3258537041188563,4.45357756454967,1.2748540767067638
12.025394070161044,1.5789705056438754,0.7886736855077088,0.3528641908266577,11.391685054400826,1.2454413876297317,11.02603645437793,2.0190167550285874,12.093325511791978,1.3362039667558103,4.487454103719456,1.2780505913551397
12.261429209760477,1.5949588814138478,0.8002494475252294,0.3577164851177825,11.633179016364874,1.2664841784281025,11.026956062456803,2.021126839098604,12.32855579475628,1.3523605978976039,4.521329746339691,1.2842484399906675
12.49376928203124,1.6087669374816334,0.8117760720103433,0.35968229606225866,11.870590892003946,1.278300930128863,11.027921086552343,2.0187407463652725,12.561589248021193,1.366039286302494,4.554976075590689,1.2875895037060037
12.72656744676451,1.623928966097898,0.8233412990522577,0.3622301055935847,12.105841371766841,1.2927278009066192,11.028920851259809,2.021550992368694,12.793864283879051,1.3806431941873907,4.588701312860859,1.2941676571528318
12.956315575541465,1.6377608088713052,0.8352322941762507,0.3631819836648474,12.342543642682276,1.2961432880062227,11.029957010632936,2.026293482724892,13.02460543111826,1.390762113674084,4.622547198157257,1.3019265489733798
13.18673457390028,1.6514823100180422,0.8472233496456465,0.3655042387807047,12.57826494752531,1.3080961745326543,11.031045584560593,2.0281229230694535,13.254215372525003,1.4071272644888349,4.656147659179003,1.3078880716226127
13.413772989427311,1.6644913852131946,0.8593566079469916,0.36836258279016737,12.812609746590159,1.3213433227554539,11.03218125826545,2.020832082490423,13.481739882533875,1.4124497673542415,4.689517623916213,1.3079197337288238
13.641254686240789,1.6785189780218248,0.8715572172951072,0.3732521713411254,13.045044264203403,1.3434234936728093,11.033357897120583,2.0194058055631423,13.70863226796225,1.4232020812848158,4.72295506024582,1.3116607874256494
13.866902371791516,1.6923585081517176,0.8836889363356126,0.3743146233830591,13.273710158160467,1.3504834724560055,11.034580020040845,2.0216916442602435,13.934259967183866,1.4391735097161749,4.756354637935605,1.3177998414917547
14.090072372538094,1.7043102692613514,0.8961083962000344,0.3763801928347691,13.50345571517313,1.3584148307399126,11.035849731688758,2.0205111151777113,14.157960213556299,1.4508223792084516,4.789599592673714,1.3216638030451457
14.31728076573417,1.7176716911313485,0.9085703649529318,0.3792956086012283,13.73212771869807,1.372109495989161,11.037166719754142,2.0227758343634816,14.382193195833755,1.4663909224124503,4.822818096376662,1.3277497895498378
14.539409279831872,1.7298230552792975,0.9209968815378223,0.380635862792852,13.957747627363085,1.3801697363213752,11.038531206686208,2.0208787014044325,14.604750633031562,1.473079502723981,4.855962223972864,1.3310522374357376
14.758809664293993,1.7412058815665774,0.9337394978160343,0.38715244600110066,14.184578325051064,1.4056602215135712,11.039942314064078,2.0289876339238364,14.825616354002989,1.4907722294553203,4.889248326713481,1.3409175187780662
14.979261268907859,1.7538151364245005,0.9464090194523962,0.38902055997378443,14.408154238844746,1.413886145815321,11.041407430326938,2.0254438160388295,15.045142823283237,1.4978965247699583,4.9222213373093195,1.3431125574347602
15.198029367650676,1.7650141667314947,0.9591618010387905,0.39114688484563825,14.630659320642343,1.4233675735380038,11.042921997216713,2.0262741730788103,15.26366145088777,1.5109545502849469,4.955191044790336,1.3481598591853545
15.414034901650432,1.7768063193464536,0.9722092790200578,0.3937227468537714,14.854160979905334,1.4315372193221796,11.044487289951817,2.024078191344438,15.48028125088551,1.5205039152792874,4.9880206622825884,1.3511666677578773
15.625407839748156,1.7876798658254696,0.9850915163208183,0.39601147938174003,15.072781941051653,1.44402528683558,11.046102428438177,2.0120696780108047,15.693982125868727,1.514744917933467,5.020702462024254,1.3475308045025498
15.84098431616134,1.7999044615676107,0.9982544347388281,0.3992206412670411,15.292524256550855,1.4550489812242182,11.047770858130738,2.0146093607003146,15.90799828081575,1.5299010330322274,5.053562909297108,1.35358398621766
16.050167271485165,1.8099503933908831,1.0114249055747546,0.40296294533076144,15.509572040657199,1.4706517710988567,11.049492048958768,2.0174483457723924,16.11929796337532,1.5441308699637528,5.086341789880804,1.35984645090614
16.261506378653518,1.8209376412104281,1.0245571817321644,0.40316423829935305,15.724013793011535,1.472038506175825,11.051266829583154,2.0203698940710524,16.32974448224612,1.5578618280995171,5.119043017604555,1.3661610764618155
16.470372184547895,1.8316023331807039,1.0378433828312288,0.4074815306125919,15.938112212141666,1.4896302348361217,11.053095899556327,2.024813021274768,16.538862345241217,1.5694932580973302,5.15176616265462,1.3734741595090343
16.673780738761803,1.8401273910573175,1.0510953336365363,0.4115639906570512,16.148823743724247,1.5066587650637466,11.054977950589091,2.0273933369890798,16.744839669062387,1.5850279218228165,5.184283820076372,1.3795591752911986
16.881873345949625,1.84974631322034,1.0643929550297098,0.4116802346385647,16.358417846640037,1.5059741312361854,11.056910897844466,2.0246905406421867,16.950459017053557,1.5985169789996598,5.216511585348781,1.3820493314294044
17.089575134107875,1.8602791965171146,1.0778647889892983,0.41481431026099685,16.568717941116986,1.517693586583758,11.058899753849579,2.028211886396086,17.156266839476228,1.6095410983192149,5.248897170926199,1.3886798096218758
17.29490316662506,1.8705244211065026,1.0913845689184691,0.41737391247374944,16.77770881215889,1.5272547913641543,11.060946053621512,2.0268052540376824,17.3611666369906,1.6093736563321068,5.281273575765305,1.3918869603439643
17.497149107106114,1.8790639788305281,1.1050823659779483,0.41947589262877333,16.986408860055818,1.5332708491454718,11.063050293458069,2.0282601563297433,17.564334631893644,1.6213889007552602,5.313567421996236,1.3970776468785824
17.692605052218536,1.886679232613724,1.1189091833759948,0.42236517231002785,17.193330760077874,1.54308055264587,11.06520805865232,2.025822048334187,17.76363464038578,1.6289191751699177,5.345699400349068,1.3995712685060997
17.89061797319055,1.8944660969433118,1.1325760131298113,0.42434949027809477,17.39629322307348,1.5527211244191195,11.067423154012255,2.028295713973317,17.96170220723163,1.6432335910148106,5.377820150918443,1.4054294267761833
18.089786626764166,1.9030592928752426,1.146529445426754,0.4257428982094884,17.60028533515396,1.5545378899213096,11.069688509194583,2.022166307519632,18.159050219782944,1.6495115397062912,5.409646385254752,1.4053193851659882
18.292960067703348,1.913590678205438,1.160447514495928,0.43131082492859624,17.803266327370984,1.5776763726249818,11.072014987463044,2.0196434036531334,18.3579618315399,1.654177798840321,5.441559690318888,1.4076152531538033
18.4964460861456,1.9241420335202388,1.174501167676996,0.432981264000283,18.006515629119107,1.58072879261021,11.074405163117177,2.0240107478578953,18.557974660017027,1.6686754855548147,5.473526198523535,1.4146958870422695
18.691270318910846,1.9321719868292093,1.1884651934726853,0.4333924629490274,18.206880020311665,1.5827615003599151,11.076852529067038,2.0259657780755753,18.75511844379131,1.679801545248862,5.505365167182576,1.4200954971485162
18.884300354872053,1.939978399642743,1.2024615961167404,0.4374076407390652,18.405380127532315,1.5993963081291647,11.079356269063048,2.025143690337548,18.94981624490389,1.6878310178061748,5.537073465291913,1.4235303733082656
19.077026910587655,1.948248309677345,1.2166580356618315,0.43928097340608663,18.603727506920787,1.602878006961051,11.081922399718719,2.0249525762829537,19.14307483448416,1.6926750503217336,5.568801726085735,1.4273529498667867
19.266112006356696,1.9555745986163582,1.23099371522366,0.44335387312163915,18.80122199028506,1.6165787514980907,11.084546190821339,2.026383412970076,19.333928065105788,1.7058687995650543,5.6004080256452555,1.4323298404600493
19.456600210170848,1.9642221221993197,1.2451595900162697,0.44465165926653744,18.995231508054083,1.6220713820566242,11.087234104741396,2.026246669189787,19.523932063561944,1.7079791507323823,5.632055148151194,1.4361331876193246
19.64057934516115,1.9719067209058552,1.2594763240376021,0.4483881733145676,19.187974007548668,1.6350259687576383,11.0899738533686,2.0251049433758426,19.71070956687791,1.7211879716896257,5.663453229923463,1.4392617885927779
19.825988903685502,1.9797664711780556,1.2739986711042603,0.45100366942825115,19.380518448456744,1.640808463915753,11.09278323507015,2.0271266153072713,19.896373880592954,1.7252577850483581,5.69500870790136,1.4445441363488325
20.009775566812937,1.987754278530794,1.2884881152471814,0.4544467069533504,19.570778356948185,1.6534109456561297,11.095649343027185,2.02806486761109,20.080485432160433,1.7355862808899785,5.726408678341953,1.4490815701905404
20.190905262293025,1.994747674087507,1.3029248443071604,0.4557707055123062,19.758189992275014,1.6575598543023993,11.098584201701238,2.0301931008517267,20.26283856310958,1.7389686738159535,5.757900208817539,1.4544099064596845
20.37510262345198,2.0038070205511542,1.3176064128380511,0.4580838077281359,19.94643148872514,1.6625619461262728,11.101574071791612,2.0294394936699875,20.44501118556028,1.7474375916599127,5.789199111530398,1.4577036135793673
20.559164331376564,2.011216096875217,1.332214767328534,0.4616041834451791,20.13285328813076,1.6760400380536764,11.104618911937518,2.0276655017881513,20.626981773143473,1.7580298698948191,5.820335544859146,1.460252396492565
20.73830601938012,2.017526263951703,1.3468524796643204,0.46298277606205995,20.317428620027723,1.6791248883544032,11.107727274846296,2.025727135903822,20.80711660421432,1.7619414718198652,5.8514628988519375,1.4626146218943705
20.914867389009107,2.024754262786431,1.361650533406406,0.46685901566913074,20.501345090074892,1.691388326308508,11.110881866807377,2.0263940529943425,20.984884789391064,1.7841648898963895,5.882304510210003,1.4668999826830864
21.09141919398041,2.0313445830466756,1.3763754760228402,0.4674997044630084,20.68277654948194,1.692076659874702,11.11411550980263,2.0300421724844457,21.161615106464577,1.7867807065630448,5.913383464329514,1.473213357489215
21.26510624261728,2.0381019822605793,1.391401162483386,0.47176502686890354,20.86468072061248,1.70423007152174,11.117399353935816,2.0260765315176927,21.33629424886405,1.7875854586321116,5.944225409012314,1.4740214568399175
21.43511507190659,2.0448908165902835,1.406227093470296,0.4732659559083976,21.042424716853578,1.7096676799057835,11.120754810308139,2.0301400855929375,21.508619592494924,1.7995644230718586,5.97514604562252,1.480636146615264
21.60470150789755,2.050083204796596,1.4210949815172431,0.4770667574745892,21.218353104365843,1.7231979129892112,11.124164843045532,2.0272475137987267,21.67901834050987,1.8001827505023378,6.005914915930337,1.482163038187951
21.77208574997001,2.055230177181925,1.4360844867330356,0.47723264243374414,21.393040105885255,1.719164249356166,11.127624161876868,2.0190155879293235,21.84738259033167,1.7992835938088274,6.036475717799677,1.4797615167223004
21.937103815421782,2.0608439468220516,1.4513278239909462,0.47975441945139335,21.567621233144667,1.7241048573900724,11.13115465764644,2.020482808666603,22.013868002659258,1.8117423457540525,6.067111122500977,1.4844175050693234
22.109038246324687,2.066254001601183,1.4662901706740872,0.48237531042772996,21.739233513327527,1.7358459929267454,11.13475035315371,2.0198529270519376,22.181654067502638,1.8140499983965712,6.097734644280884,1.4874932721795928
22.275264968585972,2.07046195650378,1.4813761207013232,0.48528521791610124,21.90997408792895,1.7440291352722692,11.138408715598088,2.0269679317873104,22.34811916822074,1.8355957716224038,6.128299257868066,1.4963009222608445
