$D^a [mM]$,$D^a [mM]$,$I_{islet}^a\ [pg/islet]$,$I_{islet}^a\ [pg/islet]$
0.5179030298147502,0.13712891372832864,3.019720138826738,0.29536494471823443
0.5655065059031391,0.13116059373898697,4.042383339034396,0.3179462214338147
0.6369083093228817,0.13688047128651826,5.06145619577688,0.3635682099674342
0.7286432488488451,0.14480317267400664,6.079911702168203,0.4058433888300899
0.8235997117379119,0.15421263668054538,7.077899464872836,0.44481385667730305
0.9338742431056158,0.16387803211523372,8.076239812139672,0.4795898657060017
1.044633818726332,0.17381791749909598,9.03525933007695,0.5112086623942662
1.178665811693373,0.18510090633725984,10.056599525485156,0.5437696839444732
1.3180051523656746,0.19484750470966308,10.945506267535057,0.5678292313592076
1.4565173711553852,0.20640151417847802,11.92478119903639,0.595470603876608
1.614988277116303,0.21845225620748052,12.78460871660285,0.623311831698275
1.759702088300548,0.22895159476986468,13.672411170743654,0.6447946471329431
1.9306855167869614,0.23913631480069109,14.541173169113131,0.6652243732731504
2.1041172704979547,0.2502239987725018,15.39790561970483,0.6859567949040323
2.2736712296735124,0.2605872881146739,16.18180384052737,0.7042523913816077
2.4468947155676894,0.27033512961969225,17.226894875789366,0.7227144431365442
2.6570026397606847,0.28326048964732053,17.95903723323007,0.7483969580635923
2.806530716151436,0.29301977576011934,18.717963459067136,0.7634600737329004
2.9512645614841575,0.3008762288410081,19.514497182098705,0.7784752210201884
3.140139241547253,0.3093228656040198,20.07792247916762,0.7928639619465668
3.3158072747651612,0.31959251727557225,20.7860049597153,0.8084894452993189
3.537186748882254,0.3297244261184839,21.359362925267025,0.8227491103268235
3.7036381544996444,0.3383284989727367,21.97776892902641,0.8322755497772563
3.8916387271581856,0.34714326042271293,22.78652584159874,0.846402602603841
4.073012570060784,0.3541775601120904,23.3625589030144,0.8563907928937536
4.249927564020505,0.3641818800818828,23.944586191841626,0.8722713174230443
4.4494292067822165,0.37193248201187534,24.49147242867957,0.8818822160407457
4.656121405648451,0.38099622574422964,24.916185312122035,0.8923130057458176
4.847168630068403,0.38670733908921,25.636173574641354,0.8959464611712068
5.03359392666398,0.3956529919692008,26.016938515960696,0.9087641639971566
5.170215228702636,0.40235692602704803,26.459325697394426,0.9162173355003579
5.4103847791386865,0.41184388843518405,26.94190311992986,0.9295671358849664
5.601483058688845,0.41980041723651973,27.4215751798,0.9371225757629673
5.897500532159845,0.42834989878069907,27.889919716369015,0.9445526661377146
6.124086837687541,0.4372228177810516,28.089987634910006,0.9490858616143591
6.333141127542895,0.4447812263304304,28.614276696950483,0.9535015604454677
6.548312678929773,0.4536715180042951,29.06672087332053,0.964057263715706
6.675798000868973,0.45689609862406827,29.404170919786964,0.9642186354219965
6.867762410169059,0.4637213994938673,29.708141938824348,0.972487360442594
7.048085790417279,0.4711354030338324,30.006338601193274,0.9799339826086891
7.3610987574670474,0.4781257111472322,30.055261211693285,0.9817044857036404
7.586939187402677,0.4865796044165897,30.46872818989784,0.9841707776837096
7.8124370649063755,0.497520979190155,30.661504206684874,0.9958881328640943
7.99868750543726,0.5034946546076705,30.66593367190443,0.9963652354054974
8.171717333187093,0.5098631101543486,30.785650596035946,0.9983463647247386
8.45748564930352,0.5134735630675178,30.990480619943526,0.9943928312550359
8.657675602621657,0.5226256473791082,31.126207414185302,1.0003380808006412
8.919074341288805,0.5310609014250642,30.97513813031982,1.0035728538825583
9.185329295686621,0.5379619156744744,31.438747454941765,1.0034855076756046
9.463875718499429,0.5421719293947732,31.877016955216323,1.0028829472845282
9.612471411629334,0.5528602621388783,31.913222124102518,1.014863251826059
9.81745364454422,0.5584994243862437,32.03638824765763,1.0171510536624815
10.028827510454917,0.5650598705572363,32.128592012502146,1.0201682286767866
10.295035521920598,0.5717067378669675,32.31458543741386,1.0223626076233756
10.533488992782576,0.5768557268366058,32.27628127248903,1.0205024208523163
10.824213867979008,0.579972766821821,32.763866655638346,1.0161519506254038
11.07745128479522,0.5901013208730068,32.72996077002278,1.0248242413421091
11.31661866624965,0.5993120284268598,33.024081278603994,1.0310399299415858
11.536872475365369,0.6059720057942515,32.956842202925024,1.0338647029851635
11.797087272325433,0.6114462143650404,32.82613056987194,1.0315018501841073
11.99978248621049,0.6164479769847123,32.95230852915781,1.0291605524279792
12.223379495452699,0.6231071615960342,32.838930938223136,1.031190084985334
12.402324619549882,0.6292785894576742,32.64469333920456,1.0306930327640575
12.726238864437176,0.63225599852575,32.488478501557324,1.0229776806017348
12.911608307601746,0.639816038634516,32.405282002611514,1.0226256464566983
13.251584384035276,0.6486149143318347,32.315804559186674,1.025057768533107
13.482651492568396,0.6554754579505576,32.239234700852656,1.023336422179966
13.620721716518087,0.6602252154875672,31.945737196324117,1.0203674614900946
13.736203357681784,0.6631079184702885,31.692191022761982,1.0154453393666667
14.036123149110562,0.668726568444388,31.665555012911508,1.0143713775777086
14.235675838671554,0.6712370678490877,31.47614930573053,1.0075362615818755
14.402632855139146,0.6767594894359154,31.385540460045867,1.0066417035565867
14.50380405919947,0.6748006853960458,31.13536259544754,0.9961198206008175
14.745116811688995,0.682212339300213,31.028048339872356,0.9985806838755446
14.935951743772591,0.6864304755629632,31.077226859809063,0.996593953684552
15.083545969469037,0.693274767261228,30.498443125285284,0.9973025343606166
15.299039476716322,0.6952052137412945,30.327751342856065,0.9881724512816554
15.621751463482617,0.7039788203372512,30.20300064380482,0.9895624818447569
15.779835117825735,0.7099488300823198,30.121642763811007,0.98800641253262
15.989683377935929,0.7129213296375667,29.59340814868911,0.9819441975404588
15.993765150538165,0.7213407334385579,29.601828190063273,0.9847493791700683
16.22683741828956,0.7197683800303456,29.245013490433614,0.9764113656378114
16.22915399481322,0.724351872726001,29.041175560939365,0.9742879515195069
16.281069533490204,0.7267955102511227,28.518978063116,0.9707658349718582
16.43376613639038,0.7260069614580164,27.933479728570397,0.9583105450458986
16.739912323677068,0.7339269496486593,27.7064863018716,0.955402115684025
17.118639842382017,0.7341004362227597,27.677153637766107,0.9434591852580682
17.431452182478388,0.7420032477414826,27.473834056801397,0.9420479839205524
17.722460666540723,0.754215549149905,27.679552915710943,0.9484285707214936
18.004982574129652,0.7559689941453103,27.31088235168386,0.9419785375689875
18.117114286432834,0.7615957988959037,27.151864396969103,0.9391038747521392
18.37758249758448,0.7699050125422796,26.585541549274716,0.9388497978698962
18.61476725589158,0.7731724919649607,26.241045397380365,0.9288192855284164
18.923166547122825,0.7773466683134892,25.96429803979839,0.9213733542218271
18.868061285957577,0.778545007361982,25.544886919663668,0.9127582801938068
18.97960442316525,0.7828203455511688,25.0590147517428,0.909111155387483
18.971311989643574,0.7823462383842453,24.62391351972852,0.8990001264336299
19.024653387584372,0.786286675988775,24.216204046827222,0.8951982561736034
19.063329933366457,0.7841137583670003,23.733154699470767,0.8836226903826732
19.456308747838214,0.78874560555954,23.160361547908675,0.8754088377242906
19.553496857512116,0.7929212859311703,22.722903882685767,0.8648718700959158
19.785460934655273,0.7922913479137973,22.276050943990388,0.8519188584058268
19.72846339545539,0.8012718840707164,21.831775709961683,0.8506286629275841
19.829565449629424,0.7974268639991818,21.59379132976943,0.8389332972027909
19.986952563916116,0.7943060563663088,21.376014040622206,0.8285525439111903
20.012970087373727,0.8011136293957988,21.044711872069442,0.828449058891933
20.236956920431776,0.8037752799666362,20.694632598810212,0.8223856126964763
20.3710123363893,0.8043754905183904,20.404302486485275,0.8130969673866658
20.386007777087915,0.8110437235211345,19.997158811775268,0.8112133455096793
20.36518681145505,0.8131667932864315,19.643570021940345,0.8054562808672255
20.485556075748114,0.8124609535866426,19.296177324178707,0.7968227964862883
20.515890368002864,0.8140154515446958,18.988816660681202,0.7901094449925034
20.68395565226512,0.8122577312957951,18.66185705431932,0.7801243537855288
20.965498548902612,0.8202441256326599,18.57053555906577,0.7791570908459193
21.109985596080023,0.8252729141476107,18.159551020678382,0.7749360942718306
21.262864570207313,0.8270343047444765,17.819046067277903,0.7660849174490613
21.413986714187747,0.824255627993861,17.65205104567408,0.7549809413673957
21.25596417238577,0.8270406603775119,17.146689428849935,0.7502697294447881
21.34845207893497,0.8309308292302967,16.875092031656184,0.7460196083021143
21.694969728823562,0.8306825540808389,16.658006554448928,0.7369761589340518
21.992783081157707,0.8381561948986322,16.503909733579384,0.7340408053383134
22.08908103492067,0.8403235518179956,16.301259021312653,0.7282744523504563
22.040886196271767,0.8490690484221757,15.936132440997074,0.7289915709559956
22.27000498333879,0.8483561065427723,15.448827464228197,0.7181394140707331
22.256747314066892,0.8517067167945037,15.029413645474365,0.7088799759737973
22.46142678482561,0.8539844780847244,14.734171114129552,0.7006301645438888
22.586315683442642,0.8541158979183932,14.4183806348144,0.6909036913589431
23.101885917753318,0.8591562799178011,14.147880617734206,0.6836699776138185
23.38639608379193,0.8678374922574582,13.825412289919019,0.6776524203829073
23.730822631725978,0.8692599624003164,13.655667427996864,0.6677835356471101
23.921282702397104,0.8703508532712579,13.384710637111368,0.6592894919904325
24.15190041200294,0.8783622629889614,13.101667188564333,0.6557593094266326
24.450619553755182,0.8852777061956507,12.63902412853972,0.6486734092307289
24.736176286281186,0.882612627260286,12.257792687789134,0.6324684528344151
24.851489111637036,0.9004496242897366,12.077850420057395,0.6345469230738525
25.413031916196363,0.9042977435103798,11.79442226771237,0.6271435632130171
25.74101457283716,0.9063798194319536,11.653590896290963,0.6174104664528999
25.515085971274562,0.9050699324571108,11.33711850023588,0.6092283584020732
25.5759391889084,0.9063093742802257,11.052906998367803,0.6031129096989758
25.695308182157348,0.9078263057937376,10.858951009027534,0.5966308122888039
25.719276852766647,0.9153043173798905,10.560800677173054,0.594039139224567
25.777474658249147,0.9147516471630037,10.182898896898882,0.5842333299577113
25.88689389931882,0.9134648967078794,9.98645347217622,0.574156358755515
26.159613510801613,0.9181954289266386,9.757193476060165,0.5689030323111623
26.20200469945927,0.9185199019366824,9.531104561689707,0.5607534529051049
26.481758505241363,0.9208106960310497,9.394875053489926,0.5549607041495219
26.572552910401306,0.9239928989946532,9.174805184757794,0.549729697037066
26.376468629698596,0.9208319462304991,9.05104735910329,0.542764678161919
26.71684944968873,0.92394018363082,8.85891202174678,0.5394455244278535
26.875207541887658,0.9288722288189004,8.709492891103425,0.5348687965416749
27.052993771374343,0.9242571566403018,8.578635021119975,0.5260905736720366
27.32826504958441,0.9291227639559783,8.463814080784262,0.5228955013048763
27.78088376411003,0.9385980359652438,8.37342058770581,0.5216493431577851
28.045475584271962,0.9463866605957114,8.261184468083753,0.519379723629311
27.92287715336063,0.9520007016594939,8.255729512751019,0.5191794283551538
28.107165073229407,0.9466901044909872,8.124929052291316,0.5139122475171579
27.987152004226097,0.9454878284002587,8.05893575908312,0.5099145206321942
27.96639290364732,0.9518394631586752,8.029559215362694,0.5121039838019871
27.849082136789214,0.9487200220624983,7.972093725963337,0.5096505909880621
28.37878875227132,0.9535642769054872,7.870000648841036,0.5084834258913264
