$D^a [mM]$,$D^a [mM]$,$I_{islet}^a\ [pg/islet]$,$I_{islet}^a\ [pg/islet]$
0.5174622190879409,1.1380977456721504,3.0387920454300352,2.2766528430888266
0.5561157043713394,1.4073802203125163,4.0874444724749,3.3339092135801125
0.617689382055281,1.50765195998924,5.104822904998614,4.025295042470067
0.7021440571102916,1.594751402775871,6.127761768952111,4.5405710771321175
0.8006089768531252,1.70674622770264,7.1216250719763,5.00888004325319
0.9047588149749237,1.8159366326958637,8.091160271985935,5.397841302113938
1.0172662074282568,1.9138999391422824,9.068434631035174,5.712299680251212
1.1488315548037584,2.052235375183169,10.002826577913755,6.103443211004011
1.2850079618318102,2.172087388956354,10.926049803120884,6.3952273599142515
1.4288080404581125,2.3070981502531875,11.977383971409502,6.728607519744496
1.587658483306043,2.4162732071584285,12.824268116566373,6.966223708139188
1.7354001133627615,2.553964552742225,13.769398666779542,7.263392015609616
1.8880196223049504,2.676403318446429,14.61446333810891,7.528897928904114
2.037946385156897,2.7672176792683696,15.453217278167275,7.696761899705423
2.19309784802472,2.862278858737478,16.237589939224584,7.873628766941789
2.3460487902450913,2.987079413071369,17.277606794336286,8.148743486458248
2.506603922111418,3.097052537517205,18.010283335245088,8.389709929330802
2.6568755803456106,3.203032589671751,18.971887515394727,8.606491033590304
2.8549957594680992,3.292960755635818,19.690471208175172,8.76697661627901
3.013721483795012,3.414379728117312,20.269620232066014,8.961903548037979
3.2054440777902724,3.52138220244981,20.939909941707768,9.116828517480998
3.4134281477555044,3.615935854085887,21.645469511387134,9.225553953298661
3.614020194044561,3.7320991293389745,22.26445138270403,9.383311599553684
3.8066983749388386,3.811116991686117,22.6286503092462,9.431795133648404
4.042153693600387,3.9362572276796612,23.368968857030463,9.585250026579505
4.261247176492116,4.067603492998035,23.746977220164236,9.749239201245066
4.431183757588992,4.168493005109887,24.644597499363567,9.875161808934967
4.631294062579648,4.260188964604835,25.191571533889363,10.028853869330494
4.839942983916042,4.363830005947761,25.656767870205627,10.159831802893772
5.073462818735309,4.454955784820415,25.800442889693734,10.211755556611564
5.258066395311428,4.5645773701356855,26.128134830543154,10.290783744627456
5.398950435435628,4.653783982318705,26.623295167873817,10.39302361822714
5.575292915532025,4.69204186877285,27.00970550099327,10.409714118283691
5.800090935304826,4.77562333398358,27.29998802962841,10.483495490959363
5.9554104036180915,4.861506067297763,27.61825811346255,10.552852906024167
6.212483012544918,4.9277553044149185,27.72103014949694,10.564201608553342
6.4090204206216255,4.990595805646811,28.344398064419405,10.563463422556985
6.611120508567293,5.106336378754372,28.79667254797826,10.734922179362727
6.8862467554801725,5.206805229878976,29.045035748163404,10.82935755050438
7.177925851719039,5.2964728253120645,29.312241222511243,10.847749546176525
7.4202739808685365,5.374514510042741,29.816255735617318,10.865333498015435
7.5810126325237235,5.486753504196,30.17742524888934,11.0094101305255
7.7798358080333765,5.543628376840523,30.50736751417834,11.054615325850413
8.028709456129885,5.662060971852606,30.8261490747049,11.195874689969616
8.254586331460304,5.72723001339227,30.985467783242413,11.20594346638498
8.512697811368469,5.798763923397227,31.315758595173,11.224510401297175
8.768062534241142,5.907453455358372,31.23337605462576,11.294233807026524
8.971256781630135,5.960705128236,31.276407862694448,11.241841482756932
9.177136894527592,6.0507952354314405,31.8271093515609,11.31913319935513
9.486361486556245,6.13740688533439,31.887421691040814,11.386176794787529
9.66740383869358,6.19174722477756,32.41895639651669,11.382827933785995
9.764692528084174,6.264975310814145,32.418427264466594,11.474104209204482
9.998683276587322,6.3106972258769085,32.49048373502439,11.476756764169089
10.292366488147223,6.380010015954235,32.18193021972962,11.448723612257654
10.542380437645383,6.453700202478032,32.36124063156736,11.41248625443426
10.78533654056391,6.542156471449499,32.61514551928839,11.461274572459725
11.11482487496382,6.657495339729611,32.511833270805965,11.533497084571954
11.371824150677845,6.73515430018776,32.879737497713194,11.5308992753533
11.650680893560535,6.799903424122219,33.047913980254926,11.54796480633223
11.977917858861,6.8875486852153145,32.9341693669261,11.561849453597134
12.030157509594263,6.946026005548315,32.924254179213136,11.544112165128372
12.292697520127456,7.017745164732146,33.199184868289066,11.603483657231694
12.565273873155405,7.104481117284723,33.09037305323684,11.646058232676701
12.799807178917987,7.20023943161134,33.34224022844922,11.693150886686308
13.019504676554156,7.223960469657632,33.32583906207465,11.646480028648156
13.211479095446103,7.288218861085595,33.304406464033434,11.654914159525774
13.549614613257349,7.359682174174348,33.15155998679686,11.646580861108857
13.718510894795857,7.411998216978093,33.04160752518255,11.593754416530178
13.999383394303871,7.457283158219848,33.047202998437946,11.55728272278495
14.139265365268322,7.4757558518473735,32.96070605089081,11.488160967912426
14.418596731158933,7.583043419105616,32.600792665716526,11.537309747785471
14.686702459211332,7.621779501735627,32.121571756181766,11.422710416041816
14.72721190708399,7.70942902166956,31.5346461226701,11.39262882797924
15.121811337901411,7.740651263903976,31.302401749306643,11.284122674604989
15.276681483147378,7.798846842471365,30.937018485274336,11.209768812293898
15.31053891979578,7.886790449459188,30.833139694709484,11.241201690052396
15.296388862726566,7.904523754349971,30.588638316128517,11.223511057172496
15.49647863005178,7.922937379551992,30.482898854042258,11.189083098954987
15.810859273864184,7.9536553396616565,30.295666447290213,11.124195713016439
16.262042157207805,8.002253749726242,30.106973905740535,11.03426700708665
16.35727508318999,8.144759380993545,29.91998301336349,11.091746218543058
16.53693300869094,8.177813948048279,29.538284935692914,11.03445582880881
16.664487021704897,8.236176124473923,29.255828745550538,10.999852749982109
16.906573255472743,8.253803953052644,29.118770157379927,10.921544225850152
17.13685373283361,8.28603543773407,28.63242875847245,10.837320607163253
17.60713413810193,8.350493891244888,28.367810024920903,10.749810501378908
17.943073714020937,8.473047890008791,28.160695759329048,10.735869442990666
18.191075132402904,8.529318156576798,28.066632778431728,10.680191511387081
18.516068318778043,8.604575299873716,27.859135464073393,10.661108829062522
18.59970319034248,8.665069864771084,27.462282458128993,10.617565381417984
18.765503108539118,8.653078852790284,26.951811755634058,10.482925870563813
19.04232455684599,8.727998423630263,26.757967356513348,10.443970965051129
19.139252385945323,8.798491224146039,26.453235422841033,10.422229631676043
19.18630672365616,8.818903554466774,25.934857939096798,10.346081713815533
19.42967340926307,8.832086021806669,25.735872753131428,10.25263236211492
19.34648632587303,8.858725539605313,25.5674569734033,10.214200790120408
19.361643041558036,8.855342429372604,25.460263026790898,10.184995689410684
19.34832911953982,8.885734097798025,25.19750921166008,10.18548670661428
19.533859632895016,8.883134124376655,25.014239251294452,10.12139170533099
19.753299129075206,8.892454090217786,24.555352688208792,10.025773177432406
20.00682977089078,8.971184545615959,24.16881879037249,9.974067885464537
20.13941294732599,9.01039916292781,24.034366087690746,9.90650927936686
20.218106358280647,9.038674096258836,23.683282647729023,9.857759866970873
20.44248390103114,9.12128485885258,23.315776216237897,9.842486675789099
20.698423200348184,9.182593038844457,22.793632760508796,9.765109446769713
21.1127066325506,9.162899594705822,22.722697272419623,9.600089351112949
21.285488616431916,9.27519787210321,22.55609437422874,9.616397531908525
21.65435410147137,9.303053123883563,22.40651780095871,9.5510037967059
21.685289319210483,9.358241450201527,22.31837521668413,9.530484857543234
21.647565846302008,9.453175162970911,22.049566507637763,9.584654101377485
22.044768413266183,9.412738779131574,21.979866105031082,9.474514253034954
22.4708999799227,9.472205297318501,21.872065025629514,9.433011804330338
22.674440894918124,9.541511952403404,21.543669920398152,9.390028490260214
22.877744499434893,9.623259773632872,21.034822188543775,9.341479793300396
22.97452850350922,9.603742119483922,20.887596395570156,9.211500596716286
23.27562957272455,9.642501263873998,20.943608788211176,9.190357205348185
23.742175456532962,9.736985234662704,20.832488135980572,9.204304352420433
23.86315879840913,9.80769731190408,20.55322494527101,9.172284641719239
24.121837942476503,9.848546277333433,20.45744630513305,9.128479470105711
24.292300712551103,9.914463940983262,20.20276348205331,9.109896208226715
24.54905804101751,9.970152681428141,19.916055578111894,9.06357545096955
24.52722503408513,10.001716662617115,19.696923951749312,9.00772276961636
24.50865736513431,9.968631387401121,19.711286215432448,8.947133698584524
24.697854301151377,10.00954985748089,19.568974833433114,8.956348283421974
24.702170164338323,10.031715838939578,19.664284406686367,8.949010444621077
24.853576778348973,10.077301577948052,19.566252790691948,8.976109575418487
25.134304188648905,10.05472440469997,19.450014639110925,8.90055827616193
25.376887303494183,10.0675041331118,19.404925451599766,8.847569884922411
25.527851747478337,10.168384972483338,19.331183358034167,8.885217218187156
25.601122292997136,10.207210309893568,19.226744897703867,8.87685211060549
25.77860902892966,10.173629665546596,19.137318772454186,8.804269181130076
26.094900012088743,10.252490712900121,19.05994171566227,8.814524293006652
26.090416086045142,10.30598695648732,19.113400307408774,8.823529491247584
26.17277784938229,10.30534483240841,19.10143537690485,8.816921058117785
26.07858631399981,10.254734565558435,18.863914670642266,8.74982648706784
26.170697907361646,10.306807394962433,18.81332555916273,8.762104141548269
26.55077106687761,10.296322605736155,18.726235333694103,8.70291635219813
26.904104587179916,10.409906889523429,18.59925246395134,8.718627393362551
26.98473269768703,10.440788107182067,18.62286217945843,8.688669989821042
27.231388199639888,10.5110353330569,18.66552480880987,8.723834699848576
27.5094735133862,10.48615384506093,18.6473979555067,8.666495749392455
27.757394400377997,10.56602707242391,18.814545392500484,8.704721585653866
27.803819566190093,10.637540335919093,18.803612994642066,8.75531727557281
27.929768626817737,10.576781162183199,18.76832272767097,8.688318396996165
27.896851084513923,10.69624974087929,18.73762264173419,8.770390739564757
28.070061690457763,10.687206875962792,18.860912013456367,8.759912550457098
28.231685156015537,10.668397545155324,18.823848581605912,8.731549194868418
28.330355327084654,10.684433064054991,18.924641362532363,8.730243222121752
28.319011640429203,10.787270782448685,19.083184295883946,8.830979773939912
28.746341681367323,10.712775446967598,19.327977541119434,8.785777065222728
28.96037953093165,10.780060517231062,19.379056398136562,8.830410355754813
29.28119946231812,10.845710649389217,19.571621441245323,8.870475381935435
29.287349134471437,10.856539454972676,19.745957575990126,8.8902054282765
29.449783590583667,10.900845113245278,19.819739175307955,8.942495997585409
29.572977014421532,10.828396741822818,19.869082300336665,8.8784591018316
29.635640826681534,10.973486352637122,20.11160404875052,9.01116834780601
29.84947881939404,11.010820422778332,20.254822726262947,9.064016246084448
30.0158913161876,11.011373720055731,20.51572032840577,9.080475187952288
30.256647161453508,11.078856504698889,20.801264309689287,9.163975230879418
30.228884554174336,11.030204434302835,21.156870775100998,9.172403222776607
