$D^a [mM]$,$D^a [mM]$,$I_{islet}^a\ [pg/islet]$,$I_{islet}^a\ [pg/islet]$
0.517064890635811,1.1416684902903054,3.038525274551674,2.2838273786006864
0.5569874397211652,1.4146018990454472,4.079886180435426,3.348868717748125
0.61850808937522,1.5104970422022466,5.106799510981098,4.028729187138536
0.697759219419919,1.601699581122596,6.137227410372615,4.565613271616754
0.7944540394269233,1.7022364152143685,7.11391967697462,5.012783551678186
0.9018430735815339,1.808080992953818,8.093340149541127,5.389166799750185
1.0156226050198596,1.913500780720568,9.114078477847812,5.725603027967107
1.1484140063743944,2.048067247050034,10.188545505530675,6.124553886292776
1.2945789782710142,2.178440810567714,11.079166834804541,6.456777228883642
1.43394101508629,2.304510156377877,11.94963755744709,6.73192647941376
1.59217195745919,2.4398919296744257,12.986722286664527,7.039072661007173
1.741665412745448,2.564275116492833,13.759508159634862,7.304666590436108
1.8984128230167243,2.6767657030809113,14.672630073427522,7.52187571331589
2.0527266918264173,2.7810181247506103,15.468851886146343,7.722162588119684
2.227261970386251,2.8840736697298106,16.39473483242353,7.910740667527516
2.3880257831241414,3.0032755821377117,17.198560771945658,8.14453258175276
2.5543528573124834,3.1260088253584457,17.89708451287286,8.375955263070567
2.7259911924561115,3.223795584006384,18.67618173781378,8.529329354738138
2.9119760722833967,3.3286758585199645,19.5459995218748,8.709566726610664
3.0851355333827177,3.441697980878295,20.177085263378945,8.904020862190148
3.237956633950037,3.5373541935085053,20.835515494628673,9.05158213323272
3.4360760919069686,3.6494966889683798,21.48486791569189,9.237118325992235
3.639132479842498,3.7391516987902618,22.456821583409,9.360235804303981
3.8619254603312956,3.8673971207603315,22.985540269534813,9.571042805763092
4.033911823563759,3.9522685422353305,23.507494366557566,9.641675616960141
4.230494017799291,4.065496766763943,24.301177722874503,9.820503978311429
4.410098809996659,4.170048836351117,24.985931038885155,9.998074359872968
4.617952346692112,4.234180769478957,25.52735075877695,10.060100104427878
4.823877210595385,4.352123873638385,26.345688493371668,10.242638160338892
5.065978528324969,4.4286962967553025,27.056086122991513,10.334330088260515
5.312809974954104,4.567208599795595,27.432009152186346,10.52190474967523
5.532164029286909,4.661781715397744,27.997608049040892,10.592446444944914
5.707385043934134,4.733099779795234,28.283275799541883,10.639599949762111
5.9213700444145845,4.823949544673255,28.66721122452566,10.724949728573755
6.102762436942551,4.912075952802858,28.996018436218932,10.804510347275661
6.338099175712343,4.992218111076485,29.547850265012464,10.874428784156082
6.594749570838716,5.067418027858228,29.90350290787462,10.915760094980193
6.850925790575165,5.220278742413656,30.300290107544743,11.101296102449334
7.0615479534362136,5.285339995714115,30.49357437158143,11.100926919605657
7.218725247320091,5.366958124795865,30.768803809398886,11.160090423461334
7.395152185804893,5.436319336557718,30.81797647384845,11.205416443779395
7.68688496823466,5.5206028427561,31.020755810119258,11.23461999976297
7.929327596247466,5.6102293861364165,31.10954774572242,11.24902596048026
8.142863186257443,5.665210946768749,31.03979175758362,11.197469891727291
8.362402684359251,5.780996271126205,31.11271270309963,11.273014486395702
8.588248951181592,5.836224493169323,31.176400267314573,11.239635605509225
8.847003611275081,5.929492798844373,31.728309242666835,11.305524896043229
9.019385285879315,5.996186208066414,31.88570794668291,11.352363229514394
9.289305248886656,6.0652552642364395,31.967318858416508,11.374055765646796
9.508871727927799,6.154604614033437,32.44016838550403,11.43246155819747
9.660973220497608,6.2387247580372085,32.53227004536383,11.521159805784954
9.890099758287809,6.251852476977745,32.83939184704678,11.468534207533596
10.123825657515312,6.355832638058547,32.95270503558863,11.56627728860935
10.361757300506309,6.4487733765977495,32.914730937919245,11.612513577889027
10.678373838849,6.509819747627264,32.957005932816024,11.57273806513603
10.984249968181167,6.589983674877916,32.93422692519705,11.550318883485511
11.30330956786465,6.696824924467724,32.742675687303574,11.557599451665407
11.569823644458696,6.758813731122786,32.970722796479656,11.506660356718067
11.913972343275338,6.914227473499893,32.74931902941777,11.623934507347132
12.240627542614465,6.971599616374711,32.34623992668377,11.511444831227813
12.648105074652594,7.086828409784903,32.36053932947944,11.491543863309843
12.718927488200883,7.154858326063859,32.26280489634752,11.464050119763705
13.033807590724743,7.227566307811351,32.00497381917266,11.465891923785456
13.103529815583569,7.269916803756027,32.12280196639536,11.42373464798471
13.344713430734132,7.310415159158399,32.00870622349172,11.41963705993933
13.648521241008666,7.368353281457716,31.977052238154155,11.389841951826858
13.979371589275578,7.450376889583039,31.691406142364063,11.364102386061486
14.127903735456107,7.51615789381648,31.593169548837896,11.323499714562018
14.252306314929045,7.598950332849011,31.22319166465472,11.346489939796893
14.57667240568158,7.621582241087169,31.04004458962747,11.248414075719026
14.682353716253585,7.728584148372267,30.883583564579975,11.284860821701706
14.823823594565576,7.6761524088550095,30.910366150461197,11.138992414875036
14.957353987517065,7.746718199850774,30.668227686307066,11.172886363594223
15.32883618935064,7.8083587219532,30.938750644203942,11.172856236680502
15.48489851116104,7.90550857593109,30.768375051117616,11.223803075363092
15.833940510202975,7.956180194733192,30.579779234874056,11.179846990369173
16.119191729659953,7.964222431145906,30.164034739299872,11.032527781828747
16.26854727623792,8.11657297820413,30.031206007644826,11.108738332366695
16.60338152426059,8.14089473492804,29.878221649482985,11.031776104390818
16.83280118930701,8.239076975324195,29.464303149527105,11.024007840405625
17.178350405845308,8.220132366747286,29.624353759221766,10.87468257706713
17.413582011564802,8.323898420352347,29.915805699915538,10.947847815047053
17.846938310126795,8.424812247492982,29.19735027637486,10.958712016825498
18.097516005008078,8.503667995623907,29.002768640284327,10.872795599237493
18.376919089581925,8.619485010809415,28.83813643215784,10.896070394449385
18.55984430033412,8.69383285623758,28.366863491407386,10.862468985330699
18.64334488619161,8.69153373520568,28.405470706495926,10.76666917381266
18.90370611120515,8.704087579848201,28.22719807514358,10.719423987477725
19.066966117749057,8.816787450318511,27.94292318436906,10.759299336446148
19.13017917589212,8.836532414331549,27.488210118091786,10.68060272180191
19.09271750246026,8.834309894914714,27.096452707891874,10.58817901804244
19.336806724859557,8.826891736851046,27.034014853468545,10.505279514512017
19.571429292525643,8.859590587042355,26.748199492502383,10.450820885327557
19.658235377534783,8.928049873324888,26.404963300215105,10.427160093352898
19.836266254001167,8.937934685743999,26.015646115343465,10.333368306144699
19.925788847457177,8.994668927391135,25.907733271868604,10.308311687850823
20.257844019321517,9.026504729858523,25.89925808782645,10.27701234878827
20.67574934232907,9.045865154582806,25.633558750554606,10.187925071046624
20.66949169420798,9.110435265596943,25.599397736340407,10.168661677321156
20.86784812907123,9.203598498368086,25.162794605651516,10.204410552729478
21.044594891396315,9.243638968934775,25.14219897775878,10.155850786787234
21.182320204303704,9.258200102227537,24.601642259687832,10.081651941212904
21.53593173569832,9.311523443744688,24.470822930662507,10.016773270335833
21.713485791508525,9.34703505981113,24.124323449573495,9.942452858600348
21.927463242735712,9.36569499726661,24.249371479706898,9.884760727154404
21.982424382919703,9.442269675830467,23.923140078263096,9.912759508195508
22.019343537433627,9.426024440017445,23.810315873710422,9.838361741528576
22.150180586072718,9.538447347003517,23.639659427643434,9.907488247400838
22.41759347331153,9.553668130970275,23.669592830722795,9.864758936636063
22.559279107315465,9.508482129518809,23.503291324312517,9.759561901709075
22.89384290506698,9.621337492760492,23.262945637185492,9.78931024693844
23.063496651940095,9.67705170737468,22.9332038105273,9.734472726972639
23.399550657533137,9.737247982886586,22.75781271360326,9.687505271567835
23.349225460062637,9.693674354487845,22.6855396590024,9.576120060985662
23.918379055752414,9.796020668967765,22.922307036773542,9.639965678330078
24.137798764412327,9.886895013991772,22.505925791427913,9.641296039606942
24.038151337340558,9.892165713894519,22.53933229471353,9.58165566170717
24.259326988411356,9.920011967316567,22.23674030400478,9.570176212638016
24.316918510852975,9.90637481973155,22.230456316205423,9.49555180786453
24.89503031329224,9.976311537819557,22.191940627114054,9.50092933176537
25.081164603434853,10.10314534002064,21.944532034085086,9.521608957172383
25.290447963219886,10.03148814597959,21.82565112211456,9.372676910409403
25.450991247674065,10.078212456393336,21.59749502107971,9.344147046671543
25.761876910579858,10.093177155033407,21.700848297699693,9.297307708935826
25.58668418556071,10.178960612253292,21.735655339325124,9.366465301693712
25.85133505518555,10.17929989371566,21.644385643140374,9.35719201472236
25.79443917705476,10.186350094250406,21.923896132147682,9.358069611892926
26.227409778554225,10.31846660791916,21.88990679787446,9.47843375358933
26.3457591985929,10.31683454827908,21.687579847853886,9.410491084472747
26.45096204082272,10.374891407851035,21.480095153384337,9.398598709966274
26.73035591400199,10.366327135184157,21.331617642298788,9.31956756961333
26.873945880427964,10.429295838165912,21.257270354851535,9.311731074600768
26.937136385177944,10.448796605241915,21.16402403528194,9.28821500882196
27.089514431657772,10.454231098202689,21.370669954153726,9.279682772312508
27.235930864173497,10.446053477722165,21.323200053920306,9.265520509900282
27.549415478544553,10.524457859418794,21.306598920810988,9.295112246425628
27.66101123669871,10.60083453183039,21.302641070257184,9.322174874230482
27.811800691694067,10.620526314616573,21.297089135004452,9.313828374172267
28.11028581785724,10.70030574602873,21.375063540030983,9.354547523038265
28.480490438840167,10.657556524609078,21.457575370739978,9.280216043116582
28.641607607863342,10.800685983614235,21.66635749459148,9.386917153726348
28.835507124395953,10.801929426686574,21.732508123498214,9.386863372627325
29.61312438410078,10.873879825450496,21.78987462450864,9.396121876533337
29.806572727413016,10.957395507794669,22.06458063794623,9.419135490412595
29.939983694432534,11.073557114878877,22.327451416615276,9.53840440122505
29.8492302104013,10.990916852139542,22.74732707990785,9.527162395098767
29.735367153221624,11.043193720897383,23.000243333349143,9.65734721014397
29.92123662507205,10.980418416649155,23.47910830942119,9.675556947202246
30.318668092890963,11.024339793339365,23.92993246574316,9.768007570394245
30.142416781790413,11.04753309422859,24.288584221309666,9.850111491843618
30.394968995286327,10.992994711841936,24.423801844799232,9.851411803984496
30.370736846147107,11.101368627604815,24.74909828736184,9.977032201562823
30.768710481785686,11.182209856808441,24.81844601954464,10.065968923621485
30.626996610736825,11.19348968050136,24.979131590185276,10.076254634976607
31.215878577841107,11.139499190551925,25.37179364634574,10.046113782848876
31.43549582704312,11.26836899187004,25.717492513182176,10.1702481612684
31.481163626467982,11.325736082236276,26.23956008913075,10.275975153907314
31.62342215503594,11.267593167037148,26.710707794590643,10.302271949900655
31.79275055898054,11.284724681776462,27.030527190723678,10.374433132739489
32.17750370499439,11.35653516915177,27.502455053399363,10.475175336735544
