$D^a [mM]$,$D^a [mM]$,$I_{islet}^a\ [pg/islet]$,$I_{islet}^a\ [pg/islet]$
0.5172175307024797,1.5964737178908437,3.0387882182152546,3.193111863977887
0.5445690966503403,1.9884468622561509,4.081138777182304,4.710225911667127
0.594895773331728,2.124326067227964,5.143771272923773,5.72579518313432
0.6647276791255371,2.2313097983017873,6.188138781409952,6.490325440610928
0.7482502444794703,2.3300334519491237,7.111283229053498,7.040423392465151
0.8466326360761629,2.4798071766701617,8.133265739840724,7.610956215412157
0.9520341084357805,2.6656649821952025,9.14813925530783,8.239144155365288
1.0661714596038157,2.7876059746810364,10.045156812807953,8.603356199544578
1.1891960866486104,2.961464327687243,11.07311163773299,9.082960511125366
1.3315562717930622,3.118033208596539,11.98044166377084,9.470703062486772
1.4830844692619154,3.28382642717162,13.099879596104657,9.848089282048864
1.6336958897807554,3.4617610837341197,14.010364168505456,10.263138663345028
1.7739399843678774,3.6225635099038085,15.027143761006714,10.622674392982459
1.9283572074432238,3.8083635553406996,15.872772542132157,11.058944259814531
2.1021070990997544,3.9606172965826603,16.754333936652866,11.33643874602591
2.2806619942959103,4.11822564593622,17.479211344798276,11.587585630552514
2.4426817946630743,4.308425754841902,18.32857214619395,11.931775924518176
2.6042656357435923,4.455943539064385,19.293264072752592,12.219203484866286
2.7983564717200187,4.622772472980548,20.059383823860312,12.542311781963832
2.9874093094363663,4.779706900256171,20.688180504162332,12.763466859157175
3.147987226507915,4.942020864056495,21.33075706716484,13.00461938232983
3.3626064060789655,5.062493489399897,21.89957446585923,13.123717920755029
3.536616727748621,5.239317985963463,22.746933155402065,13.393855542186346
3.713147146757266,5.380153291182125,23.30318002651919,13.621256187353938
3.8964901156401632,5.493237537815649,24.13265793573259,13.770501224693364
4.125367988784698,5.66739457853832,24.82952260734701,14.066859752824378
4.350774410978169,5.790800135977907,25.32881688098699,14.165297863627114
4.525272195462889,5.948004085512851,25.748964537568003,14.343111071808078
4.715766032020252,6.058743004170356,26.215566968102276,14.434835875769787
5.006593630394333,6.226236570392806,26.910923604344006,14.631229226571202
5.287069210794987,6.406987389354462,27.476714712530043,14.811588933936486
5.52288622073612,6.566394322020615,28.075208145882115,14.959730888394008
5.717767050370697,6.65805480793375,28.29301578738376,14.980638178056866
5.958289670244863,6.811937618520888,28.207379897910034,15.075590614275626
6.130335244495251,7.003669566992468,28.91597666523191,15.2864037306794
6.3423611475511175,7.081237972119544,29.508189963104783,15.37065819047472
6.550633991739319,7.184572765055331,29.894853898745193,15.475778136426715
6.768194587044388,7.308983944667978,30.28320898655017,15.595635163374363
6.963533528579467,7.394568535720012,30.6188874562739,15.631131345654532
7.123927009578284,7.562032856593613,30.99451213134613,15.865100529980669
7.363892226703364,7.622793364500614,31.225627842251964,15.856869888601675
7.59090705467718,7.7226010045744,31.135439389163807,15.847968445122307
7.852136048307201,7.88870762862768,31.091894775070546,15.92293230445665
8.048218645340217,7.973564454470503,31.651781294902904,15.898109601289569
8.279669320425382,8.100207590993131,31.983532021838634,16.041729190053797
8.557437817174456,8.241639154150278,32.222522751502545,16.15811446756138
8.787614939855368,8.296876909742245,32.22542171722986,16.063102028848704
8.895367165114408,8.381858068577385,32.51000381762309,16.085996759421114
9.160598649125559,8.497559943287504,32.849745846460635,16.21487294089773
9.348886127092594,8.631959851776715,33.28506036314043,16.361769916738606
9.568235471539568,8.751843155940334,33.36867036472784,16.47985078348821
9.675752456703913,8.855951859610911,33.638602647525744,16.567676539142973
10.031485447204414,8.871599335816299,33.72943143564689,16.463525525083902
10.237043469546572,9.058864458277187,34.086260158238304,16.628254485508744
10.49764429126118,9.13075202276603,34.262394454662214,16.63109738302248
10.830235182155203,9.28682322598146,34.2171109811364,16.713958705230635
11.085103127919973,9.39640304099906,34.784808581598384,16.728393983189797
11.405880185603111,9.5504155992473,35.063986340242465,16.88288108010999
11.656081411825937,9.674220842032378,35.087222480637266,16.933441265547877
11.988882606165074,9.70124538971221,34.8478081664555,16.758994431332525
12.154566368449297,9.86798649914349,35.08580206326255,16.85168820993549
12.272512152675084,9.923867206048518,34.89046410909719,16.842182858200385
12.413086642078808,9.994737842941355,34.7662026264748,16.837706955684745
12.669052328520285,10.033284894145147,34.67408851442115,16.75065158005367
12.829569496427759,10.127015733794565,34.5466852880391,16.741404815766103
13.13467093278038,10.27588132182592,34.43869492905626,16.812346871084635
13.37759974306142,10.335674897319553,34.49334364251295,16.723891828500975
13.5066836553876,10.40352440258177,34.72859064291519,16.73097439780729
13.747250567576922,10.385974923780553,34.612822891104926,16.609658775535564
13.91218461121328,10.57409692322859,34.36804826679863,16.75375341707296
14.060387440528338,10.606017725333071,34.48628842951238,16.68215966584632
14.350209164517713,10.721614816864847,34.451364024596025,16.748810133979852
14.628858463361334,10.77053608942895,34.104311089477896,16.629906057284725
14.792583415953201,10.900380552680296,33.98039028266023,16.63787665388415
15.058707849991984,10.948618223631167,33.88394362744793,16.55963817304183
15.391123887973217,11.098880582208821,33.91866179154416,16.616984887153073
15.434020067610543,11.138925921609552,33.854451521946814,16.5544978285065
15.550190270230958,11.201312787646797,33.76340063307958,16.57905253605495
15.753907338480325,11.252107812366981,33.82888420145049,16.568756697722492
16.08196327309434,11.44056974637639,33.78828519253527,16.7209195036181
16.269074910426404,11.476601247231804,33.37314631652429,16.592004393378375
16.333160103094304,11.499257471265532,32.9735541830164,16.45412118151481
16.591214580989483,11.557735869375524,33.259892246171624,16.427971101954267
16.933929124109216,11.627971658003487,33.5506022064008,16.447349443139476
17.365946414809724,11.785773747283146,33.21870436156573,16.502329671765313
17.616067303552633,11.888862831534402,32.82637047901561,16.40155330669022
17.869962757253543,11.99401797241637,32.70089122691462,16.351640844768053
17.96388945415838,12.021152523948672,32.42701560979091,16.247342855410512
18.173356699081943,12.02376753223332,32.22064315920986,16.122363803649378
18.576814551731864,12.202327217008126,31.93293560685176,16.178276197084262
18.843255711278974,12.371830388399443,31.848960188525485,16.203652441917708
19.151934470767934,12.415051561626782,31.55083176832102,16.086767116960996
19.420541594488064,12.453259029505777,31.149498649015968,15.931644547092132
19.583416082137052,12.602174443248504,31.085673337781238,15.959517092704607
19.7360138108461,12.683092471840972,31.176924140798256,15.983174717004442
19.758112161159083,12.615781695485449,30.910220364727923,15.839004505915193
19.842217258045512,12.586193840999917,31.03850004105822,15.75712963857213
19.828733202194996,12.691386842476128,30.929063359832032,15.8731633830607
19.957419024960704,12.67868937716619,30.69203675776397,15.800751791265718
20.276512465806427,12.76201963232643,30.657763226900272,15.792311812999793
20.408277840204683,12.819666666700233,30.81378434847471,15.779593762797056
20.66304423270711,12.908865976122662,30.476204729985152,15.800168007771457
21.090489673128978,12.94091011156977,30.444604626199798,15.673504026274085
21.545192296743508,13.035703769501614,30.196118861653645,15.59541560429742
21.71986085976924,13.144819070264417,30.399066574498644,15.58558470219947
21.937299465759153,13.26868591776548,30.05987906455765,15.642113831440245
22.204209666156714,13.306858760782843,30.28623375964345,15.581747299198025
22.196351789659754,13.350340309410628,30.17827598591885,15.59040876703676
22.33333637500562,13.478432068191262,30.655576369550257,15.751084641367218
22.64676779243427,13.438744852050148,30.44869516570193,15.678034329523785
22.85267990035988,13.587970143034115,30.329670590358297,15.732199178083164
22.850404947668995,13.616695196050948,30.74084911826237,15.740451394708233
23.13703191172408,13.644238612449886,30.62156561102388,15.769611777060577
23.446749225744068,13.743758897750814,30.549506795368544,15.77492839074361
23.643702222527317,13.716610625542279,30.286182354536912,15.617878883643868
23.662798130503024,13.871209278217306,30.26812243471208,15.708340646654893
23.826500642720084,13.84726395800341,30.289803957708994,15.644630164403495
23.885777654344363,13.859858460541458,30.432887191035302,15.637817362785942
24.169372530357418,13.912752551267413,30.5230232783415,15.675570334704036
24.42412852065542,13.987516986061099,30.53788471944962,15.693386295201197
24.48025948794003,14.050765595720472,30.423422306429607,15.69898663546674
24.732323143162173,14.111135069708883,30.539715244694367,15.714827717036856
24.96505254229127,14.18649819363319,30.715392086048347,15.756008368817387
25.19503098050022,14.22226066438457,30.905880111469763,15.766494077605438
25.201998344327723,14.210717241406638,30.839966921944317,15.730813759030665
25.611463014305684,14.237868056815312,30.68608517876124,15.68411450317358
25.49950952606701,14.380960588546206,30.875292550079088,15.784279869886353
25.775792095001197,14.447077093609323,30.73357459486159,15.84028048004556
25.95482458523733,14.448933894065856,30.751941498761454,15.762891763927918
26.03799571137758,14.443328128935324,30.958564767650998,15.732737397770071
26.180558405183454,14.529839460191248,31.102298954913145,15.833750872985512
26.32924166772457,14.570884259808828,31.08838170088216,15.857203883421734
26.639765949796093,14.610291091599825,31.360905283091345,15.864826481070187
26.859858160373562,14.7312900600693,31.65179688803164,15.98282622416263
27.272609451737814,14.762797352296364,32.12307862583006,16.016787152483857
27.63905638209386,14.840275115908714,32.307876652337725,16.07514991848355
27.78110371506186,14.954213255585639,32.72086203602735,16.189286700548617
27.876403063186483,15.053039366346558,32.46246611661546,16.28715966703628
28.074265336857756,15.070172063050068,33.10940647667028,16.301224940232277
28.404695688407713,15.023786426754432,33.335761850410584,16.282106673183424
28.675617606189583,15.22569685571997,33.314288535947796,16.454967956466206
28.960921216893322,15.33472123884641,33.73304065457102,16.534259161479785
28.973673211783797,15.242750735799188,34.146725078042124,16.47717956807724
29.18422715438334,15.343724166484526,34.12432061000953,16.6125878367967
29.39128866331408,15.443971967174543,34.5487009508127,16.710647199928587
29.49468544061262,15.421470193895502,34.468552364447234,16.68548173128592
29.588183542051738,15.460962723743792,34.61658989417639,16.70928500952958
29.948273313923334,15.471476434227673,35.31114658624305,16.748025528117548
29.995368937515337,15.564436607006582,35.44998463848794,16.890626633101867
29.944616724420676,15.555557166626846,36.272685792090556,16.977579292751166
30.126717330034104,15.585110302557565,36.49322927438232,17.121827466229718
30.627435111948724,15.622823424351498,37.01420027213256,17.171376078210486
30.905636940525245,15.818647602092899,37.24855243366639,17.369026486950382
31.246840649657628,15.862155759935899,37.87207105580106,17.421839249070402
31.05921066630387,15.915127245417441,38.66624205222802,17.595346818034926
31.32496347410021,15.910809856666509,39.34627866022251,17.74822001748292
31.589111477222236,15.883796771339538,39.70108236879673,17.779374569197287
31.83934346588764,16.000816074107572,40.37684978352579,17.954076024174913
32.17326248922552,16.03431501730795,41.28282782206906,18.07720143925332
31.94947472685518,16.10216550789592,41.92216563000275,18.29522132719067
