$D^a [mM]$,$D^a [mM]$,$I_{islet}^a\ [pg/islet]$,$I_{islet}^a\ [pg/islet]$
0.5186384830264326,0.24465158814095378,3.0382718179313346,0.4897999955436778
0.5683286389190118,0.2939281631044538,4.0725343769961615,0.6959520557903099
0.6396948811384031,0.3190611796819085,5.101163677845072,0.843102522170208
0.7280067450434502,0.3384861338320686,6.121870236154125,0.9498844483266267
0.8290468473252797,0.3615379816918381,7.124517626121846,1.0448986226806156
0.9413668325837786,0.3863657691184181,8.121018943611588,1.1305547964530944
1.0642848713049102,0.4121360616304503,9.100738859121817,1.2087021339058859
1.1948595956547647,0.4367506644153953,10.055419513919968,1.275690101764958
1.3333307242573802,0.46187855079764717,10.997225301677094,1.3386174764329957
1.4780218009175068,0.49179291144854703,11.902352034074095,1.4109087383669068
1.6280457413707097,0.5132935601400404,12.801417817655965,1.455562158170153
1.7846404957971793,0.540006498303868,13.690604114939843,1.5131643323751973
1.9451662000870484,0.5670746284237399,14.573808305975426,1.5699462552845116
2.1092737642925097,0.5906951054795715,15.418369003220926,1.6157644863688119
2.278087783116268,0.6116515414012321,16.23948151981989,1.6524562959760123
2.4520153138861436,0.6375404363934332,17.028144149300285,1.7006376375742451
2.6291807418796505,0.658702240428007,17.80902207332427,1.7346840902723115
2.808345596814407,0.6836247180564434,18.556006700549734,1.7779111520580324
2.989237809503358,0.7090018676124077,19.286694447399004,1.821434280210633
3.1753375528420777,0.7261554554877606,20.000365668094354,1.8431136737752567
3.3661459362144885,0.7490189921519556,20.67775343975493,1.8780329052380174
3.558852301883,0.7751042079891097,21.32229367490317,1.91935500936767
3.7531640127614625,0.7993172891866405,21.95882999373366,1.9550849759193114
3.9514082922226126,0.8261516501644306,22.563291909858304,1.9965016068282284
4.143329863817556,0.8393386324484201,23.156432988108243,2.004792769359392
4.34412038940887,0.8641650188781501,23.71942104141407,2.0411984202861384
4.542670323647131,0.8811011022331717,24.261273905282817,2.0576016630796805
4.74741791189536,0.9015747916554201,24.79187269297886,2.081993866799945
4.951644997895988,0.917182574678193,25.28982811868793,2.094310682321649
5.159955243639665,0.9442262825132743,25.740567075720225,2.131781267296575
5.369949893398441,0.9569632779887853,26.21796081495247,2.1360871200516485
5.577641954001814,0.9778767772425597,26.63305899703341,2.1589642980971053
5.789801127267919,0.9918970243595493,27.053593094415127,2.1658663837113767
6.000439825892446,1.0148588026818934,27.41864817823303,2.191830951663995
6.205552335708338,1.0344486667201283,27.778483835686785,2.210022905090508
6.418179904142958,1.048313738561767,28.11721594492787,2.2160729611772725
6.632624584819379,1.0676392001174853,28.41922362393833,2.232536734283091
6.850043747216026,1.0870944970133867,28.741472227034745,2.248683225256328
7.063254855203189,1.1020133815929514,29.033858644770337,2.255790811227188
7.291005833334531,1.121357433948768,29.26848151890514,2.270570959427812
7.503321703187586,1.1436013393282656,29.49949836991952,2.289929733232649
7.7189890540044725,1.1527080200371105,29.74412978504097,2.2841892391926497
7.930539643526318,1.1670443842452232,29.96936770609878,2.2896951663196248
8.14877735615064,1.1910656409518878,30.17732746023764,2.313739137095572
8.366050283621748,1.2067788496798346,30.331482112054978,2.320250906909564
8.588295182128137,1.2146421239847212,30.43762517312328,2.3100802188464984
8.80626370556289,1.2380464440932772,30.557247783856745,2.328984724316009
9.035796447693333,1.2478343975950628,30.701007259596462,2.3225307649244193
9.25427329919489,1.2686690365937356,30.797469245950367,2.3367271000019474
9.476699124478804,1.2739905107553893,30.863473409279752,2.3217910914398088
9.691486749267886,1.3026000324380997,30.911144819520366,2.348928996092483
9.923255691743586,1.3172255076796997,30.95616267383618,2.3499033069769575
10.151242400563484,1.3290703763406764,30.96805745328328,2.344938548370022
10.378147232169049,1.3442351240304926,30.981504729249025,2.3457590774871986
10.604549851879517,1.3616082979663375,30.981999331676757,2.3503892554645414
10.826749764777455,1.3749956714301064,30.9485159260218,2.3479047051131334
11.04779021919818,1.388311912195282,30.91644320268923,2.3452532387163583
11.27111436362444,1.4056102949272429,30.843067937006563,2.348773458305142
11.485713424643272,1.4178662991908466,30.803738941580416,2.343950863438302
11.700212340094248,1.439776056080409,30.75016179779226,2.3561094030836847
11.923834504827836,1.4449412527085244,30.623805828263446,2.339405567248385
12.135131709333361,1.464049502640769,30.5213003641414,2.3444720304728883
12.358312444194988,1.4717543871188834,30.411135012867636,2.331659459043663
12.581840783711627,1.4873319114952348,30.291013816008444,2.330858945636755
12.796498786798205,1.4983250606041274,30.12709474945749,2.322304303085987
13.011728030926406,1.5169108181138715,29.963054375309174,2.325182605537036
13.233370428703921,1.521481940353984,29.776466370132116,2.3059789439077623
13.462843157130292,1.5322446361644628,29.55575593866434,2.2951245577939927
13.67065786920223,1.5466086261657777,29.36913303476772,2.28978691323887
13.898840790242232,1.5656098404052752,29.17585735591324,2.291975524165706
14.108325559397844,1.576516565393096,28.993231160325706,2.282287639973434
14.331136359790513,1.5897914367203996,28.759417777754216,2.275907254805621
14.544238841096918,1.603022257974053,28.577509895580803,2.2691843127093034
14.752114254071694,1.6101852966671997,28.36168949061333,2.2548621183585906
14.971407217220854,1.6260392375528196,28.119739065860724,2.2518306833051303
15.199373888271063,1.639757418750671,27.871358965683875,2.2443525168741734
15.400626060373737,1.635876887326734,27.584785641217575,2.212534741591363
15.616190575273137,1.6543184027645126,27.309006935593192,2.2112668531345254
15.839451814694412,1.653760541297815,27.02608778662539,2.183881345367417
16.051013555882218,1.6822662010209,26.756638789196685,2.1951062279862192
16.27260275924544,1.6910987876875174,26.449063676502828,2.1800607431492534
16.482393551665623,1.6997665144376233,26.20865192569967,2.165271735371584
16.685005629560212,1.7053049142559864,25.882243959863914,2.14720419586551
16.89807148232899,1.7286225014734513,25.612583001192224,2.1507524372660143
17.11882994338605,1.743154186947506,25.282203136549455,2.1425531727720064
17.30463341885466,1.7484089136248986,24.96337104736957,2.1225245440519154
17.490916199396764,1.7608900349913503,24.671991212956552,2.1130002664310576
17.6860042586365,1.7641749286322175,24.359144687088776,2.092590698870771
17.89573238087505,1.7786315962053307,24.04048119448898,2.0844239354125302
18.09616212308878,1.7920599196354792,23.709095975078917,2.074247206776668
18.29714653991367,1.7917107437009976,23.394156743796607,2.0482748085247033
18.495246875549114,1.8029375787614133,23.045078699024067,2.035545582088521
18.702382188976145,1.815602310029087,22.705048266844027,2.0236204434022613
18.902015596814078,1.833318950194316,22.380577425347088,2.0174308000125145
19.11009411887479,1.8337129794577203,22.051594776365153,1.992353825972681
19.293436551750005,1.843017091908109,21.735154163511073,1.9776587712537013
19.499065385827667,1.8638380268916557,21.409962714805946,1.9753937293952406
19.694170973510207,1.8595038971484463,21.082827272746524,1.9458124349001915
19.896304104647232,1.8656610014708574,20.74581392928526,1.9273383617018298
20.104373741601087,1.8951810903331783,20.424810327373415,1.932555735971623
20.30576771294239,1.9055766813816177,20.079063123490247,1.917588850398602
20.46288582533699,1.9126526256943388,19.715931039439788,1.8992854115027242
20.66755991686653,1.9070678911031682,19.39070303856961,1.869011833326558
20.84835961410966,1.9107866870004622,19.058888951221345,1.8481817496702782
21.056477914691953,1.9237065070849904,18.7086753037391,1.835890211753484
21.236568794954348,1.9369186801486935,18.38400309039648,1.82343219982404
21.41821980787635,1.9453015432380547,18.046119035679748,1.8071865167503063
21.587887610237058,1.9532512326962719,17.71716077655757,1.7904614830631438
21.773840595437907,1.9638423398531024,17.40605382333716,1.776642818344401
21.960451692236227,1.9750154415378105,17.090265279060695,1.76327371501338
22.134658240085617,1.9753895979262284,16.775714206238874,1.7401744454301287
22.315574790513633,1.9852695503988624,16.4576655698141,1.725640951419534
22.47019479784126,1.987295932395411,16.148528328645025,1.704518304945922
22.661348550808672,2.0012744242789724,15.849571168103806,1.6939671358933492
22.850243273823775,2.0044197257641443,15.559177771578627,1.673928375044965
22.994683667919258,2.011445466455009,15.254163300816359,1.6577139392003224
23.160753135399656,2.0290806204671767,14.964425792678576,1.6504522191129185
23.313000783805457,2.030789722647227,14.683244882233073,1.6304607893344663
23.447613507740424,2.0303459345910513,14.399611994281097,1.6094917009599594
23.60152794972135,2.046962627290642,14.11628070051248,1.6019798973969794
23.736949575243425,2.0524199972730157,13.8379361340707,1.5854579989569415
23.87936727779648,2.058288737854413,13.570583713034072,1.5698219593569935
24.050017555807013,2.068848189846462,13.30623749702082,1.5574623318276792
24.208456857190182,2.0708652605994518,13.046682145851644,1.5385361121870444
24.380212795021524,2.0770934095982643,12.788532314945659,1.5227503495018568
24.532178760261864,2.07704525810011,12.535498420317305,1.5025332477976998
24.66673911128046,2.0845708435350683,12.284144884079437,1.4885215380402235
24.81616186564626,2.090586994248605,12.04234053522624,1.4736109478511883
24.97415014323306,2.099971608707242,11.815265798999167,1.461352753745538
25.126639647150053,2.114338983956012,11.583064693557949,1.4526557086946295
25.28259807207702,2.1292933932486258,11.362422141100554,1.4442702629334185
25.421802360529018,2.1248715551427155,11.134388607283476,1.4229140202893245
25.5614111036992,2.1268441988416695,10.913685015713522,1.4061113011211304
25.734492741071847,2.122233032720535,10.711392246987065,1.3852750179776987
25.86544468666526,2.131929173846406,10.512166018885207,1.3745394160359545
25.988119429267908,2.1442394391803434,10.309025750931848,1.3658813683485134
26.118203395350857,2.1485023617129944,10.110140236435207,1.3520085891231235
26.259157452389804,2.139498874565465,9.941484006763257,1.3306055405556039
26.37370880943617,2.1671942764593943,9.763015731428709,1.3328269698529576
26.498088547493765,2.168672021279939,9.58042455015679,1.3184755639721946
26.632357699128402,2.168206979295537,9.42102504357915,1.3032536337892417
26.783423800089405,2.1799983284373208,9.270347250219832,1.296099832321106
26.912877135638958,2.1854796743936458,9.120299411624083,1.285355984979367
27.03851218205668,2.1804101191798826,8.974577560392067,1.2689392466552245
27.18014070587521,2.1965186253416644,8.840183941512294,1.265226351274136
27.296419745112456,2.200159394861079,8.705364205319842,1.2546422546006997
27.422871084845013,2.2059294736644,8.587037866800392,1.2460002750273442
27.549013171755966,2.2039652193069994,8.47259296748243,1.2334658953838988
27.68355762897337,2.225527016973011,8.367354766504404,1.2345230673182035
27.802545273084753,2.22363584833538,8.271416176604165,1.22305669928431
27.934955124267372,2.2160601102954933,8.17545900823572,1.2090918150276029
28.07015673975792,2.2253577641660818,8.097453144288158,1.2047793392412312
28.218925983747994,2.2226982609199264,8.028801741529964,1.1946242065839672
28.351868697107967,2.2285390113890684,7.971168500491627,1.1899069381300191
28.478368781318938,2.2469084827770525,7.9181936103263695,1.1926376223989192
28.576561984863627,2.2472710399749056,7.870600780469898,1.1865569437279604
28.69433529808668,2.247687203561345,7.8277081033442695,1.1809937815829552
28.810364064198087,2.2469680762152295,7.794143326183782,1.1752177946158437
28.907982338154007,2.254695837453922,7.762429867796608,1.174508207668799
29.044779971205088,2.2659505989806674,7.736868894666389,1.175725399163566
