$D^a [mM]$,$D^a [mM]$,$I_{islet}^a\ [pg/islet]$,$I_{islet}^a\ [pg/islet]$
0.5186960349645858,0.13729852810950738,3.0386174012512885,0.27691300967185795
0.5685693585316238,0.15636619044652897,4.07263011142251,0.37117955412055337
0.639740344934876,0.16658285773167683,5.095307197245314,0.440944311434857
0.7275579998019664,0.176432483076971,6.11714094045788,0.49512824694613944
0.8292233698321002,0.18935738205222713,7.116361522873883,0.5471324047241538
0.9407292472118378,0.20273283860606556,8.106353880513852,0.5928957529778409
1.062676853393403,0.21450160249378067,9.086111615533653,0.6288707299020105
1.1940703959716512,0.2281980966605571,10.050261479266448,0.6665305033553729
1.3325241272384476,0.24073618167338484,10.984814372810376,0.6976830174610549
1.477108466037598,0.2547607552528271,11.91118911428178,0.7309804542370951
1.6282224387665607,0.26907590543330406,12.82441945710016,0.763604317437138
1.7849475035409585,0.28136580885548657,13.716451692230306,0.7890868159699518
1.9451819414986895,0.2947058097081664,14.575414744028846,0.8163816981628732
2.1107108916193327,0.30903676375660605,15.41614440142308,0.8453195594083307
2.279536474148373,0.3205231548945399,16.23445459305939,0.8656364834245618
2.453743069969593,0.3321841634761803,17.017454310378096,0.8856506841138294
2.6318539733475648,0.34501126256763354,17.78344198088527,0.9078063057152046
2.810251853803506,0.3588319716282862,18.52612066817949,0.9321723381597198
2.993958648782251,0.37302503642576407,19.25838426463172,0.9570812698285961
3.1833541783841044,0.3824894060629976,19.974647525397803,0.9692141228221162
3.3719964363179353,0.39366562423293305,20.676000026077002,0.985536070487224
3.5631394335156017,0.407631311770401,21.338147739757677,1.0086265094390379
3.7561894286267488,0.41905019254746084,21.968951819084197,1.024631587285666
3.9554819044531393,0.4288527787455943,22.577580042214834,1.0361022260166262
4.150589014141962,0.4386996903672684,23.14026467115061,1.0472736197811412
4.346658070359822,0.4481444909817758,23.716009284426104,1.0576652649707088
4.543290354661736,0.45944875615136854,24.27899420866932,1.07274316594927
4.750186652737888,0.4722302506493535,24.836826416257395,1.0908626280192792
4.953982974331993,0.47887560116727323,25.343615024603615,1.0941733938296998
5.161007381785977,0.490012150769764,25.793307198578717,1.1071985264423025
5.367241143539988,0.5014179055519756,26.239647359628513,1.1201679005136251
5.572630726493185,0.5109938145311432,26.677866876270418,1.1292093070318603
5.781769965988648,0.5221202104340704,27.084645648598116,1.1415117500106238
5.995900528578717,0.5301649707470292,27.487189716484654,1.1466205010968706
6.206234352869572,0.5386649145502101,27.825608797138027,1.1523068995617982
6.421725383074073,0.5477926942926654,28.140287232307905,1.1587772163068966
6.641411934606145,0.5602313997672217,28.457134504983504,1.1717388782379883
6.856443124172252,0.5670764261629367,28.736240258559416,1.172843650099216
7.076255033880655,0.5779695521212836,29.00713316942597,1.1821598287039978
7.297590590791241,0.5876597901458872,29.234793792808656,1.1885368198781248
7.51426709247614,0.5903632854302554,29.485466311386322,1.1808523901580272
7.733785466365352,0.6045571986975563,29.706277998406417,1.1966026196955664
7.951425012433338,0.6119551482534916,29.84632504598635,1.1979966516313163
8.169592547429342,0.6216807479779773,30.03496910782253,1.2036758684680486
8.39033199571383,0.6283661010992294,30.17334281356149,1.2035988268007174
8.598258979038032,0.6380715330225929,30.32112069234185,1.209450163196059
8.823073594437739,0.6441121203486528,30.481793122671846,1.2086186849989218
9.053488075733485,0.6519562880839834,30.557504345049892,1.2102473227208557
9.286890815958078,0.6642354042003633,30.6618784160064,1.2192317510897812
9.504622732094383,0.6725498980461769,30.72924894805962,1.221114423458217
9.722484341924243,0.6776441214051405,30.78282034132536,1.2174568700407622
9.936888356650178,0.685664685936711,30.834683019062016,1.219253880882612
10.159772170545756,0.6940172042932174,30.837848284834383,1.2212057488643968
10.370787281714795,0.6944790190037883,30.844471134433302,1.209058364741539
10.602615642986942,0.7069886640568979,30.85435714183566,1.2180510727924887
10.830285852644746,0.7141543574207633,30.83300158806483,1.2171051237981112
11.053552973623948,0.7188301974611199,30.781609838383098,1.211664459524494
11.262939267225581,0.7298198291701844,30.731931414329285,1.217093598094037
11.470384997124263,0.737015016321645,30.65243853290682,1.2164403758392863
11.691964822743286,0.745480927513129,30.524327950792486,1.2170930676520313
11.909874252492367,0.7575018331639572,30.454199333545617,1.2231213491280313
12.132098192277036,0.766593795077954,30.33160364588904,1.2244945552555375
12.361816878587968,0.769992493838592,30.18668691553874,1.2159495386182453
12.590987386164473,0.7685246446812383,30.048542991503684,1.199573089025663
12.796508144435345,0.7795365779034639,29.902627186316302,1.2033790512153393
13.007319713818973,0.7884670748150561,29.78086955022549,1.2044331374011175
13.232892106632214,0.7907360411161011,29.63887065168058,1.1951751673777846
13.455921069040196,0.8033796194948386,29.430464972347263,1.2007831127084403
13.677779181034945,0.8071536543601423,29.25172913244695,1.1925348366767574
13.911917993215459,0.811858273096364,29.047064282195485,1.1856684612484227
14.128377351240813,0.8210856054748426,28.849768657899833,1.1853473238549923
14.334422279939941,0.8253127240174905,28.629903579044605,1.1781864993065094
14.55496887211712,0.8328611519807712,28.390278362757485,1.1755136395091148
14.784780340304742,0.8402792569412543,28.19320445117978,1.1723785549974162
14.994289887165268,0.8512668469577723,27.945134718172866,1.1742611024967866
15.203752164002132,0.8553791592426087,27.6817840814853,1.1663754858084752
15.421538350363644,0.8618820140044287,27.40879813588362,1.161450047281114
15.63704515412903,0.8652891216835707,27.130032191095776,1.1521019638143333
15.841923175556069,0.8736080831292581,26.859756657138878,1.1495520434908153
16.051900368251466,0.879403170752671,26.579282828604057,1.1436798449269543
16.27236351397311,0.8824871089550346,26.275198764135737,1.133908925255875
16.48554381755609,0.8891654747502448,25.96936704266212,1.1283975142751685
16.681550602895378,0.8918320696913323,25.662372095879654,1.118029048977843
16.888168572863737,0.893178604541034,25.333572625809147,1.1062047032520492
17.090183056813842,0.9067932317101681,25.00815732455022,1.1092285617216917
17.288221051282587,0.9121798759404637,24.673617818098844,1.1019669027010492
17.487437069016593,0.9182506773522466,24.359548808609713,1.0956976848832198
17.68913245661069,0.9244750871188852,24.04251365428765,1.0897165161652413
17.896284222098423,0.9236896375324762,23.738242642038085,1.075520375488888
18.09367040548324,0.9318243329486882,23.41032706362638,1.0717968705659435
18.258558802339795,0.9358431289592244,23.105998781270035,1.063669905516429
18.468505683452314,0.9392601193416484,22.780841232648644,1.0549784719899935
18.661349420313268,0.9479411785052847,22.44637735721144,1.0514064458788293
18.87782767861136,0.9556730188959615,22.09697948846411,1.0463442200102402
19.083113931797833,0.9625493166272456,21.778204860885975,1.0400708473745943
19.267819018664557,0.9578343545511063,21.457010583951007,1.0220382236213927
19.472227753218856,0.9680666011212266,21.139641715380275,1.0201995948185238
19.658455414626406,0.9743144102699459,20.77224211275352,1.013521673252274
19.853548262927728,0.9784372881933177,20.433469337325807,1.0043518397134579
20.016070794193194,0.9848906223677836,20.08559911121261,0.9979370859879911
20.213683424866296,0.9853622462023817,19.764446613409778,0.985688271305231
20.400205553095944,0.9909870992004317,19.431136172666726,0.9785571293794262
20.604907934763663,0.9982336508317118,19.079746525407177,0.9725289869001308
20.789642319412696,0.996694279373064,18.749262828426176,0.9577911951183123
20.95673193122272,1.0086962153366046,18.41246868328712,0.9567087523106353
21.141877249024677,1.0076886031438244,18.102177130408897,0.9433391981066566
21.363453989377437,1.0138818713625428,17.770580221606817,0.9364423114367076
21.57227565762715,1.0164392057981577,17.454124937501756,0.9256513476941912
21.748174023690357,1.0274019603045348,17.140497202839967,0.9230180278609155
21.942911309724078,1.0298770445643979,16.82882621257523,0.9129417723971255
22.126641701259473,1.0334595112558933,16.533962113162037,0.9039659858828382
22.3308869734207,1.038544062175046,16.221122792106826,0.8962226934731625
22.51512834707242,1.0398643702479788,15.921015344599809,0.8850901949974872
22.685265095029067,1.0520953227007153,15.608022235855746,0.8834690838074631
22.86857843200922,1.053503589476198,15.299519419018962,0.8724933939786829
23.037035318818933,1.0543306310543443,14.994975388715202,0.8611571061607951
23.18206372570474,1.0604753854735327,14.685841278436591,0.8544369516384799
23.358636018579325,1.0631026188068953,14.401499325992361,0.8449955408141525
23.49891379254305,1.0616551189736605,14.10699917672562,0.8325817374842546
23.667071142265225,1.0763444542482694,13.817831578953294,0.8327693010612268
23.831894376505062,1.0664546489207094,13.551163685414371,0.8139030278694452
24.00349638557393,1.0810619334253828,13.270694450542424,0.8140015782074791
24.149038041257363,1.0806798208259276,13.006147401109255,0.802660854917125
24.324328967181867,1.0816502564424897,12.751158274925825,0.7927680411259327
24.509927409349885,1.093569704748389,12.48070340811818,0.7904978567215313
24.681351724543628,1.093245627099722,12.218361945389995,0.7790414767019278
24.83447801193776,1.094733163506492,11.973263807587937,0.7694435143845528
24.966246713874067,1.0943730256054267,11.73400770400583,0.7591735519547415
25.121633428662584,1.1024910660022025,11.489153028257064,0.754854113975265
25.25958928849081,1.1027358082385181,11.25172764661175,0.7449649346797119
25.433587440730935,1.1147532855809372,11.028605952702954,0.7431501988246542
25.591957053778817,1.11091126633007,10.808642147430522,0.7307741201000134
25.711757849060437,1.1104109868191696,10.59778287006345,0.7211484232770236
25.86663383126926,1.11909128137024,10.390632494763548,0.7177768766183473
26.005148118909204,1.1222787094634523,10.206355640248896,0.7109803255960181
26.1466682277406,1.1307610428664534,10.007346063519181,0.7077527745636866
26.272279683255153,1.1281519980587678,9.812495665052191,0.697434226571049
26.437104083851427,1.1197103454412616,9.634759989223678,0.6837546972197918
26.553964959992914,1.131136733612559,9.468121835130601,0.6827327733916454
26.667705094400464,1.1340187708954663,9.299526543079425,0.6769015338887191
26.80569724525465,1.1372757684688177,9.136775027176645,0.6712486050660192
26.929615250576276,1.1373482431598227,9.00190477813412,0.6641149182994113
27.07207949723313,1.1481154560291198,8.856858137851836,0.6635858299560861
27.20118442800401,1.147697492552228,8.730688319354485,0.6565577011237275
27.331379130835767,1.152165815534276,8.60003518455254,0.6527262153342839
27.454391002575875,1.148033418198936,8.479839491883771,0.6441033624094903
27.584739689775137,1.1584599862658567,8.370343863995084,0.6440274985755201
27.704892823157884,1.1571650013838715,8.258971255811385,0.6375841497067001
27.806969738817795,1.1602740324031693,8.164987386046569,0.6339976672519854
27.939051673309667,1.1548897954271875,8.067747312184899,0.6260033856498695
28.070033581796473,1.1672261766570373,7.9772281056305285,0.6275470532032618
28.164912263530233,1.167582221992672,7.900936821692925,0.6230896848130553
28.27852766282163,1.1671884077966685,7.8392016566646054,0.6189214069061344
28.375451132252902,1.1683809688902727,7.764804462750959,0.6157085371531954
28.481854560654053,1.1712488825221525,7.705312674636674,0.6134429997391149
28.609268280227088,1.1787890829726493,7.649587444590692,0.6137854930652358
28.73960995837438,1.1829132792341648,7.596229298814455,0.6123034356458154
28.875344716562278,1.177942967871601,7.560262185475908,0.6064340838595902
28.99320260221531,1.1770925226904259,7.541182618050992,0.6034441283938066
29.090661678301803,1.1743135220182246,7.518878575185516,0.5999716125179625
