$D^a [mM]$,$D^a [mM]$,$I_{islet}^a\ [pg/islet]$,$I_{islet}^a\ [pg/islet]$
0.5187238792856314,0.24391343261758291,3.038425365233802,0.48831685890747245
0.5680780254416986,0.2956184607605564,4.076392104492402,0.6995843115875978
0.6389539921314272,0.31895249242821117,5.103268693385522,0.8441751531238679
0.726290443103334,0.33967350487411235,6.126128503403923,0.954524483315977
0.8272969987114843,0.3610288735349607,7.13846306796742,1.0452130199092746
0.9389078312607085,0.38626425958534183,8.127714651932767,1.1323861900699985
1.0605485706482838,0.4108328083892599,9.105120289410964,1.2071656035395737
1.1915985295067626,0.4359705648759431,10.066894974909395,1.2759525236986338
1.329322027044532,0.4641886025067982,11.004928389340863,1.3479936186037957
1.474167560794141,0.48976755695040486,11.93282244372868,1.4080827564263731
1.6233228770296162,0.5135446202593696,12.836664447640452,1.4601602053171416
1.7781214844859687,0.5397774265526937,13.7095678075866,1.5166260329445116
1.9413126482077432,0.5637062193416074,14.58639399172334,1.5639784134555836
2.1061693586475596,0.5915550212823119,15.432538578381228,1.6204945766336254
2.274829366694905,0.6194550813129646,16.244208135809092,1.6754583245180437
2.4504489880601965,0.6398884128199274,17.0379946299108,1.708179703281064
2.6237726736552296,0.6611768294648287,17.82853208608024,1.7430042434674784
2.8043465252219897,0.6834574260158279,18.568680541088234,1.7798074161762278
2.988900513916246,0.7052743792167765,19.32643746514501,1.8137960030692781
3.1759712741680026,0.734718242012651,20.01565508350524,1.8664453130547973
3.3662575277774978,0.7605963960537038,20.6968349212426,1.9079002561100964
3.560583661653186,0.7710465456698844,21.36030063680463,1.910139482115817
3.7548477853123687,0.7932980192267741,22.00041640063369,1.941636154615764
3.951561698548666,0.8196557764139017,22.626294661488373,1.9827000954057443
4.14856136613698,0.8404088716138146,23.228612844510664,2.0096832764162618
4.347059393587986,0.8627076876127799,23.77652270809574,2.039617722611925
4.548802639496839,0.8822790535580249,24.304616613630262,2.061636292668845
4.745845979695597,0.8997411047996161,24.832507203680674,2.0788510781065392
4.948171416118495,0.9228608670652009,25.304810045060886,2.109113989626932
5.149885530922174,0.9367331670452034,25.78663964970529,2.11723333527316
5.360447218968408,0.9596074946498416,26.25178799716272,2.1454994020322338
5.5642586023887946,0.9730106262439864,26.67032671378722,2.151726917091548
5.768503982385267,0.9952380106699371,27.081366951115992,2.177654823557531
5.98312348045675,1.0112697628707599,27.477130600327293,2.189212977440539
6.190737906472913,1.0289566640831056,27.851091567296145,2.2037539643021318
6.404964082892621,1.0522369781566727,28.250336433838278,2.2307849735442966
6.616133787242931,1.0707805179251304,28.57553596526396,2.2470047803577247
6.828416382560744,1.0896711569074198,28.893579807545752,2.2630411799333126
7.044048706932592,1.109888658002326,29.18790099754005,2.2813093077408735
7.263461668680287,1.1158639775083483,29.432805649507273,2.269049944427923
7.483600633083452,1.142315624689059,29.668733643464748,2.297536737103065
7.70093570263745,1.157209114521588,29.865938458213485,2.3019855410529875
7.916897068606816,1.168060866902979,30.06695602925987,2.298602405080376
8.143046110171612,1.1864272798333877,30.25880599475937,2.3099989129963188
8.375117586786558,1.2059105873422495,30.425330590606787,2.3221577574269556
8.596122764201487,1.2168765985026253,30.552637538400024,2.3172399479695973
8.816742084361328,1.2376911553233558,30.63522451840704,2.33095796634695
9.03366262860437,1.2530423381049849,30.770870542586852,2.334480950109332
9.249065778019508,1.2681495594393122,30.89526790915311,2.3390939693170987
9.46772954284123,1.2881538170616553,30.96990049917919,2.3522558922150427
9.69274785215578,1.2941140959620754,31.054219566406744,2.338631001206178
9.913376315718311,1.3107143119947886,31.101301468009645,2.344089020142879
10.13067153126488,1.3258667966589328,31.074977751510385,2.3457825771729346
10.34670078532782,1.349546340218374,31.051066870227583,2.361431302983745
10.556986707756895,1.357990349469749,31.06300026993765,2.351184940680333
10.790426669605715,1.3753025051080128,31.031848177722946,2.3561541377592
11.010163120286805,1.3832760474878465,31.006730080131316,2.3439192990458895
11.221839248578302,1.3963791624765487,30.922498946042104,2.3410396772983084
11.445028011832271,1.4186008973922826,30.84568300785248,2.3524436270870805
11.658892123928945,1.4321659534599702,30.780213589544392,2.3493922469086614
11.876764298007563,1.4471980684251406,30.675967874567235,2.3490258590095334
12.08805965168434,1.4614407475895599,30.57676802798036,2.3468490838879044
12.31075501595136,1.4707114950259799,30.44416267677852,2.3362955606108806
12.528955993404221,1.485155962136078,30.33123198642275,2.3335276436463985
12.749072279911879,1.4966352948745767,30.212303259838546,2.326541363483756
12.975268619209396,1.5042725574820055,30.057219864129667,2.3128810088266363
13.197506877984699,1.517145295386714,29.86788980526491,2.3062349522053998
13.407254716590039,1.5286230852776572,29.661630522669125,2.297131015170696
13.628785000088639,1.5440027971371968,29.481755701897505,2.2941437328177288
13.853178470668606,1.556084010416843,29.26216066062011,2.285634539585354
14.070916883011428,1.57146912626774,29.07776618762949,2.2818584408773566
14.270780009137734,1.5851623209834045,28.861188152155208,2.276658323146957
14.477109061037503,1.5896530687965473,28.63168138763937,2.2581699205731587
14.710354570325842,1.615265401683638,28.41535549835617,2.268776823169267
14.917227904610613,1.6213036727762127,28.160714524997868,2.250859044468233
15.129763141106546,1.6327608644003657,27.90735272378494,2.240713915164224
15.350375628899624,1.6467022851250976,27.66138234915231,2.233774560336951
15.568304935259231,1.6467609518392188,27.393533228587458,2.207728312818552
15.77283977005453,1.6517308534423458,27.112009144368418,2.1884705800281945
15.983042099449328,1.6824874843955688,26.851888519780246,2.2036206404047265
16.19977253777349,1.6961315627504832,26.596511071677554,2.1960284477410186
16.39650250139341,1.6891637286897512,26.312962697719474,2.161972746932558
16.56978869891444,1.7052311764221864,26.00553980384878,2.1580778840005266
16.78029699331536,1.730946377334033,25.710572781038334,2.16567296467812
16.98778463009332,1.728222150446396,25.385755340826826,2.1360336053417557
17.20245949788711,1.739787725636779,25.096688651235137,2.1242595900218277
17.424792902290168,1.7445307021458007,24.767655504267328,2.103710566667145
17.60414071207186,1.7529804768786286,24.461955565733884,2.0880864052072403
17.81373698755651,1.7729034260058965,24.14766380551619,2.0870155928824516
18.024240906792652,1.7889114473264074,23.821316369036253,2.0798545786721783
18.24487927935004,1.7880743022983276,23.51380924212392,2.0527253194993427
18.444987164491305,1.801944782071647,23.18664747036858,2.0430080051711004
18.66330988786059,1.8053773174898313,22.85145811040742,2.0208725400104304
18.879741083587444,1.82200855621891,22.54031410624111,2.013426848320412
19.08503517981296,1.8301073652194608,22.221642591272488,1.997009864276946
19.259015724209377,1.8475806354593869,21.888107926753257,1.9913754387898628
19.464444902731838,1.847052677960575,21.58293613712835,1.9664938494283648
19.656248876240273,1.865490319380666,21.251708132495857,1.9617337005506967
19.836494874781955,1.866510012800553,20.911983438809994,1.9381092683680912
20.02028371735208,1.8846561590947297,20.58806628458735,1.9327090616230203
20.209152983915537,1.8874971470454938,20.272246993731144,1.9116070293001495
20.409723454060977,1.8991504042406948,19.94401849161738,1.8992116142982298
20.608607214586108,1.911634190627909,19.6266237557693,1.8871585100063493
20.804999392445918,1.9187362964281256,19.290591557177116,1.8695002317872191
20.994984197374688,1.9214462686814866,18.94947193179964,1.8473231374802443
21.187190283746098,1.9269015634265683,18.612845265753066,1.8277706957799837
21.365979324648862,1.950279893491649,18.288077759208562,1.8256115687896348
21.54592386267533,1.9549817063018124,17.94772066864893,1.8057902773095833
21.742752071973673,1.962781045576517,17.622504333737503,1.7885744403242074
21.92933920491753,1.9584312316692525,17.29843518257123,1.7604205176761416
22.09378755623825,1.9729287694788522,16.980908448808794,1.750031652488437
22.283858900501667,1.9908566080226517,16.663885037195122,1.742634365035144
22.447494563458775,1.9977633235661012,16.362650487491464,1.7255428696113009
22.633733218212463,1.9947729577970748,16.0629097851921,1.700521359356764
22.811403991478404,2.0038381838610353,15.745449274517958,1.68536486855501
22.97910247920917,2.0077621105580183,15.454661300977675,1.6660490629332476
23.14738374666527,2.0299513546117276,15.158357734477288,1.6624609834852249
23.332521264098354,2.029685738999507,14.880386235744943,1.6402413878074829
23.521379279165473,2.034764693548088,14.603279859519732,1.622636284176638
23.664393382918583,2.042446843725134,14.30613329171965,1.6071849989127942
23.831448989304473,2.0607693280002994,14.02369167500503,1.6000923644621432
23.964850929065285,2.055431105256191,13.760143815772087,1.5752462822359081
24.120354793861104,2.05525541937294,13.49507686707129,1.555373816555512
24.275376051266143,2.0703107705937196,13.230186449039559,1.5466251681571475
24.434390384795563,2.081291608788561,12.974287395956733,1.5346638285448613
24.597905135870143,2.0890406446428575,12.709677255100852,1.5200581488325802
24.729818959303604,2.0995824214505276,12.454422151056626,1.5076412307005098
24.856124264943556,2.096562246777559,12.207503500689876,1.4863375623872135
24.99635909790457,2.10434968479843,11.968428657635593,1.4731683678211007
25.159245957382826,2.1109877202447267,11.744088566053843,1.4591816371422606
25.31938253132906,2.1172241631906177,11.506731250657243,1.4446054414547054
25.488269901665,2.1298693058259146,11.31050401753959,1.434833437651093
25.66143173904716,2.138573445087153,11.095003977147758,1.4228535243112759
25.807231191321357,2.1457365897540877,10.889346965794752,1.4097118226912146
25.948516654202955,2.1411421749722277,10.687446124181752,1.3896106946679192
26.08128895610565,2.144139464029633,10.501418072023654,1.3752399804285218
26.197893357165764,2.162550956221528,10.30952929983662,1.371342288346614
26.3154603851811,2.163464873970098,10.145861522447719,1.3569309506386487
26.467141207681543,2.1689678138774595,9.971533386623225,1.3456817168258373
26.585389766107635,2.1640911905330067,9.792016169488917,1.3275066017724733
26.680766022679226,2.1691114171829486,9.62565173784771,1.3161532076658269
26.814507520586428,2.176861039265774,9.47892274718138,1.3072164944274645
26.971988474691624,2.205301120305482,9.332631047325943,1.3105940415590336
27.13242746229012,2.197700549030659,9.200971552383752,1.2924155145095324
27.268229829695443,2.1921848941575774,9.067284887773999,1.2763219395655794
27.394114167604588,2.2107232874408678,8.942041538401376,1.2748299598080781
27.541961491917593,2.21054577701718,8.83312080430079,1.2630607126175752
27.665672119877318,2.2139398259441765,8.726432726406953,1.2540934797881824
27.80111318411264,2.2271724620388187,8.62164423532378,1.2510542856153186
27.911674621422588,2.2216489405606157,8.527851759155228,1.2379033323315762
28.07148149955014,2.2196829596028778,8.445204186904139,1.2273519569383862
28.219759936719992,2.222736914356337,8.369343216146833,1.219876619467691
28.368588784757538,2.240880287583443,8.308589521973227,1.2214107265763101
28.519651752968855,2.244975438868213,8.256856154719683,1.2160584002698112
28.63086410531499,2.2484897568294464,8.208593087004557,1.2112441656308148
28.72970021868561,2.2470103418575653,8.179069976038047,1.2050981613987815
28.86181159057875,2.259016157742312,8.1444753578333,1.206670034240667
28.97709370109928,2.2727871597109024,8.12515443093077,1.2093229604035698
29.11174695215121,2.278816184548784,8.11055910634519,1.2084405583687525
29.214841419178494,2.2636782879640003,8.103460411831065,1.1969926624173541
