$D^a [mM]$,$D^a [mM]$,$I_{islet}^a\ [pg/islet]$,$I_{islet}^a\ [pg/islet]$
0.5187704250939061,0.15464352399084227,3.0384672848578393,0.3109738680697189
0.5683390820035896,0.18043440715459155,4.073131353546454,0.42761828760762555
0.6394194871377173,0.19261745940339672,5.10304620798963,0.5093887101287882
0.7269439385927342,0.206053635818222,6.12006518258218,0.5786321925904546
0.8283080783266333,0.21874540936167355,7.127562421196427,0.6326848047291775
0.941116280249718,0.23389499230182395,8.118606694639022,0.6847028323666532
1.062111371683993,0.2486701741679101,9.098698110044475,0.7296304982775953
1.193413950801702,0.262867023835214,10.064755258408544,0.7685205686383707
1.3317695609431808,0.27875278991433455,11.011181625713103,0.8088248543961202
1.4763258107227462,0.2943818501495241,11.925562482543166,0.84568419462176
1.626839182048737,0.31002638270314853,12.826093135358168,0.8804893659925016
1.7838626291188133,0.3245441783506125,13.714431116479181,0.9105865587258994
1.9443026408446462,0.3401204820768989,14.571790077275047,0.9424222833934701
2.1097162230401234,0.3555029011201036,15.41201906939243,0.9725443777683657
2.28123382088732,0.3713168127941244,16.224961211734886,1.0026348399075125
2.456563085609399,0.3870639084924705,17.006206677255133,1.0312626649593373
2.6322684534052825,0.39817774619751495,17.79676880782573,1.0471926660619097
2.813133939323777,0.41220914214714277,18.548030995008048,1.070930674905564
2.997468589859279,0.4293564951074049,19.27277626787711,1.1015803136848534
3.183666624472448,0.44150019835826426,19.979587291604254,1.1186588455382531
3.372840095280727,0.45614511770006605,20.665145110162452,1.141848874097879
3.5628491843322734,0.46994844159482274,21.32778094184271,1.1624887062295883
3.754795071375469,0.4814601095922697,21.97055632902763,1.1771993907726201
3.950156957018219,0.492150384382881,22.58597292939832,1.1895429754557352
4.1487415941762995,0.5037610544007408,23.164557477122557,1.2035313102002987
4.347082885932268,0.5224041371881246,23.728323978287428,1.2336568723682153
4.549648036585001,0.5339874600348933,24.285000067965946,1.2466852219028433
4.7527580399939975,0.5457387449408336,24.794617353023494,1.2597821142213754
4.958175698056968,0.5543044158244382,25.291326592931306,1.2650935771166298
5.166486809864824,0.5670926300022943,25.784254754789853,1.279951727941247
5.380533842830459,0.5764569246577247,26.20934149878547,1.2862719133633478
5.587770865035091,0.5893496594646621,26.63673887036984,1.2999767701287843
5.800338821060721,0.6020994267147268,27.05419478830788,1.313638870966554
6.011570788256418,0.6125733349159993,27.45135477036934,1.3220763849442072
6.2217888026397725,0.6226658940845461,27.80787607765564,1.3295564534982787
6.436277182328398,0.6334676925383621,28.130909515564763,1.337966448259399
6.656693280734875,0.6451978040923281,28.436807148842394,1.3474850410242603
6.866821718784577,0.6581658322519381,28.74089142474566,1.3596316960760333
7.0743885927828485,0.6702631041313626,29.011678988792724,1.3703923938182205
7.289739400531754,0.6759013950470667,29.292963359767768,1.3678265873260351
7.520469473588457,0.6867091023209033,29.533800642091506,1.374939634348336
7.732096491992699,0.7001537989954424,29.755838393885593,1.386779145423613
7.953607964462938,0.7141046816728782,29.936876897422916,1.3994472693340794
8.173659123885734,0.7214228979532831,30.144533182716206,1.3987020811215645
8.395409771317174,0.7277418153324207,30.289260432367435,1.396131734194647
8.612296358217927,0.7340480055438827,30.399295732896547,1.3929632939878853
8.829840353877085,0.7425638184616149,30.510918198480173,1.3939550631201332
9.057683759527485,0.7535179373602973,30.586247146796964,1.3990703112590925
9.269108092707365,0.7657208925310016,30.676358229946533,1.4063610480972812
9.49301781712126,0.7773336912388135,30.735469732827546,1.4126691385683774
9.714581467145543,0.7904849315356521,30.80042415763444,1.4212435646936614
9.9396588221535,0.7965781481303463,30.842931113359686,1.417035825075534
10.164075055933477,0.8052958365517676,30.83247697803855,1.4169336038190674
10.389844103019811,0.8179501221448975,30.837898239783854,1.4233185365210395
10.60537487312419,0.8251537035007207,30.817569910007734,1.4203643246639694
10.82428448658556,0.8272115693862363,30.77939489024986,1.4086866233165904
11.043908649118032,0.8384303517092742,30.729625433553302,1.412516597894209
11.25417841304176,0.8460308926841816,30.713448371079817,1.4105474716862536
11.476900454902854,0.8515063019988403,30.684583424790866,1.4055195172617636
11.695065905715657,0.8638162041097547,30.630718694524194,1.4113217240108047
11.914123114537823,0.870849539812066,30.562887147487814,1.4081524793816136
12.14089566160146,0.8789121979428814,30.466714054832675,1.406198711125585
12.35940290804602,0.8906640487044214,30.347533912461532,1.4095719284207786
12.589523016829622,0.8938790375429323,30.174555534495433,1.3986840037022759
12.803603543173066,0.9058041328106177,30.003804021515567,1.400982508334501
13.01501869857866,0.9101786707356424,29.85623631020075,1.3921739247086284
13.240169917427057,0.9184823790609816,29.68266841009107,1.3894505200530836
13.467508946928394,0.9302193598452256,29.48822246128475,1.3910754459219428
13.6799955272094,0.9325810662144983,29.29899388958602,1.3786371606104566
13.900464271779486,0.9406155468569329,29.095259951914663,1.3749650162621907
14.107681259346892,0.9468622274455337,28.894550332694557,1.36863350631376
14.338548101708222,0.9596327645384699,28.667805199563063,1.3714860611190431
14.554388560934514,0.9666315448171069,28.418818451189722,1.3651438424709945
14.769291765016744,0.974799131254825,28.16505103727568,1.3605145078698926
14.984820553817904,0.9805260524833201,27.945982795318876,1.3527541184749008
15.20331455929903,0.9854389846996563,27.679853259006403,1.3439676269678849
15.423936014843328,0.9940098197730219,27.38927283437169,1.3393326633484948
15.647515168008407,0.999380427729988,27.125674477580098,1.3301358514264836
15.848665313409171,1.0065567047284383,26.844862490419295,1.3238685589173451
16.050121411706538,1.01280015877579,26.596377565397763,1.3169596185624821
16.265736478778464,1.0256490899384536,26.29274266154788,1.318379035753285
16.468013175039964,1.027848024709383,26.00236688362849,1.305365499981178
16.67038744822478,1.0393955700269961,25.708071324586868,1.3045708498546287
16.8817585760545,1.0387894866102956,25.38223983622328,1.2880381006796486
17.09440971776156,1.0509091093295435,25.100712782658434,1.2872128051475096
17.30330024553425,1.0508580143973283,24.79839495575782,1.271748539956975
17.50250746696186,1.0574241651196385,24.474838369262578,1.26423970008611
17.709539986896804,1.0673541743104926,24.142300834321123,1.2603619877793184
17.894421175467443,1.0712199090218517,23.83210487460988,1.2494549728016888
18.08898848316599,1.0791411558184967,23.510038075346635,1.243785611808255
18.2909375847089,1.0909672077407968,23.188121580649515,1.2421135234235874
18.497361399619688,1.0922697489511397,22.86548565187473,1.2281314169533535
18.692652052868418,1.0900954789913242,22.54473463017356,1.2104881821723046
18.886115253583906,1.1017653751799124,22.215772195057124,1.2084268678881522
19.075329938935354,1.1048351185058516,21.88167223571113,1.196672589789413
19.260666831084077,1.1168339946306434,21.564020487980635,1.1948113834790899
19.45885155557241,1.1155741254303633,21.217233797343166,1.1784912844860331
19.630478562389,1.123404336505251,20.870165238122656,1.171599084311874
19.838068530477,1.1264887347998276,20.52408593242528,1.159585719631133
20.04061282151069,1.1313529668401725,20.183446738513037,1.149026229268594
20.225844275918586,1.1382048723182878,19.832821937906274,1.1406022341658268
20.417464738372466,1.1394191147718318,19.508213403412284,1.126786276305855
20.61398390075105,1.1454314484375083,19.17809652967937,1.1179984650597623
20.78626162823184,1.1525303695580458,18.843907519392975,1.1102322967397866
20.955708974237815,1.1616413806429204,18.49998505777828,1.1044659200107396
21.143077307601832,1.166835209567883,18.155265689893863,1.094553668487088
21.330589258556024,1.171549003319606,17.820892322380285,1.0839807344736576
21.529238092567883,1.1749863766856263,17.490360066126676,1.0722390933925505
21.714096624010665,1.18058873038022,17.174645077834068,1.062672352619006
21.89871916854371,1.1863350202901832,16.85741241376974,1.053548565757702
22.05077987788879,1.1890783557174212,16.545221504202672,1.0420800697882133
22.202610238907365,1.193361841233596,16.21944258783414,1.0322488037316913
22.341513229065658,1.2028289743508453,15.899751941481592,1.026827389018476
22.50289453395201,1.201631342415738,15.58381193895782,1.0121971087646924
22.658371932724314,1.2066005734656478,15.271751452838899,1.0027232812678757
22.81592180273801,1.2100296508231947,14.962881551649208,0.9920511235750924
22.99327465698461,1.2129040591661329,14.639471715081676,0.980447579383076
23.15698867804969,1.2217642674533151,14.338734499159518,0.9735582141640036
23.297879765514022,1.2386509866617474,14.03944444176209,0.9735140828382911
23.479856244165422,1.233062114345918,13.751261182901361,0.9556519324571637
23.631523189850764,1.2343390746062024,13.47068877972595,0.9434564188067562
23.79470083514394,1.240986259559776,13.17784296706252,0.9354591297959162
23.94587197608894,1.242701529291227,12.899939074476166,0.9236161646414276
24.101160807427775,1.2435886714062614,12.629840337784646,0.9115630966516294
24.254744137972036,1.2525007772236152,12.36239041349444,0.9055324351340992
24.398526798903436,1.254791175846533,12.096702432343074,0.8946841615458664
24.541138410482404,1.2562048037238067,11.842514647935447,0.8835315920199948
24.68793416860365,1.269368539849287,11.585499322703102,0.8806760168575238
24.847135187371112,1.2650247655041054,11.355548004844463,0.8657116419429947
24.990942203082966,1.2621668391321363,11.122901695659765,0.8523555174172429
25.127066560659287,1.277680615466064,10.888395149457132,0.8514929147312833
25.28445395011449,1.2731218004350695,10.66586189688939,0.837133353101349
25.45899760456729,1.2854573285736246,10.439531767218885,0.8337851997437781
25.60089870630643,1.2796082448757908,10.23185038719261,0.8187707266917047
25.759967907351598,1.2847330263568435,10.01667375954504,0.8112435579620375
25.897633070020113,1.2892205665169012,9.819678700696253,0.8033647763447582
26.052785521289316,1.2876040444212515,9.617492332583844,0.7920384286121671
26.192278580943285,1.2912479752770059,9.414671517523033,0.783773969849754
26.342337426610552,1.2864179704497838,9.242119493870653,0.7708549412752541
26.456137336617566,1.2976269263590114,9.064619411084164,0.768280589143762
26.563177117133126,1.3053243419782652,8.891366119910561,0.7637987920170674
26.70092987145616,1.3142951951924569,8.729967486271699,0.7600832535891867
26.834346196176952,1.3156492752540487,8.564957633562639,0.7518895548682499
26.94704763900011,1.3112619962348655,8.42368782938128,0.7409042954324575
27.075342111840506,1.3194071913340546,8.27680408968788,0.7374899066971029
27.2026847074147,1.326332728787921,8.136051362465869,0.7331811529116601
27.32718094720045,1.3187273146400271,8.001455022545116,0.7211495888770386
27.436020847342675,1.3263342033964978,7.869580361649842,0.7177539511275022
27.585417189075393,1.3387701497594415,7.75613872957214,0.7171133188285462
27.714968004781817,1.337952982161507,7.651534809536409,0.7097191766181655
27.829804736456136,1.338260423374938,7.544927850088564,0.7034148767556117
27.95530527495963,1.3411590604479193,7.453795421735577,0.698767308633999
28.079856107245554,1.3398756934741265,7.3652746168254,0.692294048014926
28.16873954954809,1.34209316917791,7.288813213438825,0.6881394614406009
28.2895894785205,1.3417062273203844,7.215001999392229,0.6831108215449339
28.398561798546343,1.3497480786607001,7.148184075661286,0.6824534589598074
28.500347671480064,1.3541128580371433,7.082178049022715,0.680109298129709
28.60993624101569,1.3622476111204331,7.027682184350251,0.6799750580264015
28.726507244658226,1.3597360958135039,6.981086850961278,0.6748181469164372
28.841456346025502,1.3644900951507548,6.938380926336361,0.6736113220239871
