$D^a [mM]$,$D^a [mM]$,$I_{islet}^a\ [pg/islet]$,$I_{islet}^a\ [pg/islet]$
0.5187131077108316,0.20955224273203107,3.0384773471535165,0.41985332452650964
0.5680163158002479,0.2522188942999439,4.0730195994418725,0.5969569617563371
0.6393259783714135,0.2716488900801909,5.102076523676759,0.7185474989698973
0.7267882124802998,0.28928043997358427,6.119415468527179,0.8120613291854808
0.8273117288892116,0.30821188972413205,7.133578852347595,0.8917112294180203
0.9402861613702631,0.3285705966253601,8.12799463057726,0.962695791076911
1.0616367809361997,0.351953598958023,9.111673226303848,1.0336798954861868
1.1923513791366296,0.3719155108136779,10.071309436500611,1.0882995008629062
1.3311209287359154,0.39470481397253826,11.015169737545781,1.1460382370438222
1.4749525497845672,0.4167284343646759,11.945617738615159,1.1980719004478835
1.62650789846967,0.4387589666427971,12.84527843268369,1.2473835945910212
1.780971097438492,0.46086175142548774,13.718574199305884,1.2942688766960269
1.9429166354306648,0.48320705095726685,14.572139033359845,1.3398368253258888
2.1072937450257125,0.5075989024313952,15.403035083815967,1.3891823314473035
2.2749171476972463,0.522779532158903,16.225623833406303,1.4125018024159262
2.451811620942672,0.5434463770678216,17.015866414947286,1.4496756347868835
2.6307599034275766,0.5650694772027962,17.804454694233634,1.4876813989509237
2.812569979404761,0.5829628778473208,18.55532573559784,1.5152650450251992
2.997667246093123,0.6066925976035016,19.28148440529896,1.5570182110323336
3.188071885475508,0.6263574428083833,19.986349056778664,1.5870170578031315
3.372727722154422,0.6434702661505318,20.63926456440335,1.6099719939228176
3.5618805064324386,0.6625210243104876,21.301387873072336,1.637972230532482
3.753608763980862,0.6772877873150401,21.95991200083861,1.6554439598673414
3.949175719867654,0.6984557582641512,22.58696835642641,1.6881972722606444
4.141714700093056,0.7135401068380828,23.200087834784895,1.705760755022518
4.3453870465326725,0.7358257862296846,23.750809814716355,1.739499375703086
4.548013283351234,0.7535705302728759,24.29922509242405,1.760475608178453
4.749462273920016,0.7704494420262299,24.821157789113606,1.7796488281656224
4.955368431652398,0.7856214296817864,25.329244615382056,1.7945998056614347
5.167038287685825,0.8000248005374082,25.84451462902405,1.8074554501435076
5.374321032858802,0.8205643116787033,26.270027109812833,1.833442732762998
5.584405572898742,0.8392624146063897,26.706473980674353,1.8541746128489902
5.79333666223295,0.8516677911060965,27.103370083160844,1.8609944316837497
6.004499669186063,0.8700056267975235,27.487492058983282,1.880380206326484
6.216150410020298,0.8791074418106412,27.858340449236668,1.879606019720107
6.4240149926874714,0.8877686093239489,28.18714666816022,1.8780207875951938
6.630674987835866,0.913249543567519,28.53599012575392,1.9122983398725524
6.843167982566103,0.9295415519979694,28.86309824044558,1.9271751006732627
7.059200799400122,0.9428294131801286,29.16472655293183,1.9348852824250713
7.279002313361483,0.9588388434768563,29.43420913476413,1.9472201882486255
7.4845839065211734,0.9705328844785587,29.68371056666136,1.9507338856158623
7.7013847151561,0.9870835474568378,29.89721059350786,1.9639817698725865
7.915954620495528,1.0048748442292856,30.09104519779075,1.9783859908304449
8.136777205754552,1.0143846829013519,30.242703697400895,1.9755837365498816
8.358541099621245,1.0300645046815204,30.414939635138282,1.9843110459352795
8.56701378008854,1.0330953807098004,30.546786800869363,1.9692594281418216
8.784619936860803,1.053012963998789,30.66396154011902,1.9866412931743314
8.98849156606026,1.0657888351305558,30.76682152971387,1.9901603272648327
9.211321141033972,1.0825242679508909,30.85126505659975,2.0007581866274506
9.434789066628875,1.0889055359929898,30.91739337116405,1.9908164696706787
9.654926663942994,1.1061610228258378,30.974870611777796,2.0007768735925544
9.87830785471768,1.1201229586656785,31.01209797012042,2.004384619661332
10.09787640367099,1.1328737339594566,31.049013648358017,2.0057468341022857
10.330665150512484,1.1453773141199795,31.036558065981538,2.005914781828419
10.547059530779407,1.1588336954416052,31.00592643307673,2.0068311072962897
10.765056793376308,1.1747585749585876,30.996684640046364,2.012692664443509
10.982045267797732,1.1763483435459252,30.95270704550791,1.994205274456107
11.209315373685483,1.1920935796307999,30.89232786080962,1.999130196876046
11.43825791737,1.2073213450920488,30.82075527067847,2.0021825319260254
11.668460255022623,1.2168070241500781,30.720503710881275,1.9950142654716865
11.894806688469762,1.2241751870461488,30.615781736518684,1.9842143910291175
12.111528761006259,1.243385555666173,30.50096154461961,1.9930242913978817
12.338871229372284,1.2547655056767661,30.418103293649054,1.9894625235166985
12.57327237729954,1.266670398620081,30.296074876831927,1.9864358968294098
12.79000378834778,1.2774928193047048,30.160742861972533,1.9812642181852236
13.014295366856174,1.2831201135660395,29.998262279139126,1.9681200228268334
13.23359290508466,1.2958113017879596,29.830546533819565,1.9653592776608064
13.44657112144159,1.3082534424704293,29.637421362058813,1.9621023854525375
13.653404630065136,1.3178084907509622,29.40917201364923,1.9541845333806251
13.855970130016257,1.3256897115689577,29.2134319970042,1.9440161473577595
14.074310662482313,1.3339615568017131,28.984852303931948,1.9344347512153162
14.278203514483293,1.352411522451085,28.772014660336534,1.9391124437824887
14.484572497719357,1.3644716644451624,28.576346626553967,1.935379119864562
14.690218365269246,1.3659824178573292,28.35038053493052,1.9166000767635034
14.908874435217708,1.3757312336893044,28.10479378668455,1.9087572384189115
15.118432941535294,1.391851423562782,27.87405366116394,1.9092217519350667
15.335158413633014,1.4002218193683207,27.620301909052564,1.8989379847048726
15.552340393658266,1.4051776807675482,27.36651366402106,1.8835743078278704
15.761679929736044,1.421680149971548,27.11091610360065,1.8839276608379085
15.987908962393433,1.4289121822178505,26.81070461241192,1.8710594124671054
16.189393647016676,1.4413431035551585,26.54281979534231,1.8647957923540353
16.38330873992679,1.4421449435005684,26.298038048743866,1.845102972798006
16.594348261219704,1.4554503470042772,26.00988696383563,1.8415559647813695
16.794950180775434,1.471483795704693,25.68968328737187,1.8398490247853967
16.979331223546172,1.470954197886274,25.412243952021363,1.817754800409336
17.185916216859475,1.4796772361771766,25.09734180593131,1.8076382641578772
17.39296038882445,1.4932018137256664,24.80461447073151,1.802400476988988
17.602207557177806,1.500099760430544,24.504387511221285,1.7891893291545915
17.81003605630753,1.5112795966199342,24.197655204953335,1.7808556384423055
18.029231825130196,1.5139478269395505,23.858426896151055,1.761750536951794
18.229312146397177,1.5182013745552565,23.532927268584185,1.7443044703690036
18.42677026262834,1.534656222454345,23.195661794969382,1.7413032227838785
18.644023907026973,1.5380220817236265,22.876778139615595,1.7231183446361915
18.84203259921911,1.5627111777329132,22.549027462210276,1.728911425153082
19.052408323996477,1.5605062085427248,22.179291271563446,1.703958507943385
19.24414539749932,1.5697132220206715,21.85017403584886,1.6916364341003174
19.437571799104266,1.579839414795831,21.493491836936187,1.680782452442911
19.62396651101571,1.58034466951129,21.1673634701806,1.6597832855403933
19.80378426971547,1.5991230908286382,20.831925070102812,1.658703433699771
19.992123445104564,1.606449930238211,20.504273294831318,1.6454141467156875
20.17967968735917,1.6128833697155973,20.167763755295447,1.6310468589535558
20.371142774535198,1.610395003797763,19.84681310918144,1.6077882672257815
20.56101229307431,1.6363799651919908,19.494197953940784,1.6126243015514883
20.747344233419323,1.636559944361848,19.159495947287297,1.5912604298887492
20.933095529004362,1.644634912327022,18.839298080435054,1.5783885617058035
21.119158451527575,1.6482547948098947,18.515226546251117,1.5614303571630086
21.300939763203882,1.6533003313999126,18.173524298279897,1.5455483590394143
21.49013539790584,1.6480290460227136,17.847911618338895,1.5199538489545144
21.67177882750922,1.6677785426237197,17.506301248091322,1.517474300154545
21.83102008510635,1.6823628919263849,17.16259998690198,1.5098659516300401
22.002879205079044,1.6818690562384133,16.844846691146856,1.4891873636602007
22.175803643837927,1.6783972073188063,16.520068248326886,1.4662839893694177
22.36071810866212,1.6957657084286855,16.201276667228772,1.461398485415961
22.532687845339076,1.7005646733205633,15.874336112586366,1.4452025723679394
22.69105266102277,1.7053404245039,15.584281077259156,1.429818208820202
22.852141997556423,1.7104321695389686,15.272222323813656,1.415341863211269
23.02156843503824,1.7206386675743695,14.967029967859805,1.4045508067979111
23.190045872012774,1.7199622838545296,14.683428665518722,1.3851292078777813
23.36096811383159,1.7392364216208556,14.401947150809569,1.382193906372756
23.505900880530938,1.7427735754621063,14.126136553807243,1.3669107594165621
23.65217217315374,1.7428521744449095,13.843427434505262,1.3493003894771889
23.797775063653198,1.753962912807146,13.567096998619185,1.3402478564238696
23.955083674218574,1.7561654402234634,13.292899706742869,1.3242057033775974
24.103427624522357,1.7562299931452041,13.019115930829335,1.3065462591096788
24.251035675624706,1.7708689860350821,12.748938890887516,1.299857312943404
24.414595843209828,1.786304203589586,12.494985569763658,1.2936034535024568
24.56437623433948,1.780064714329042,12.2386091411148,1.2718302401162354
24.716643748127797,1.7847980948553286,11.98858525814947,1.2582419974951045
24.879111391103518,1.7836220914401284,11.747409444324031,1.2406699722886503
25.03857230120395,1.7915646934609104,11.50677447628011,1.229561266309225
25.205817402204925,1.7932729088527073,11.263673050034713,1.2139454957397389
25.347628598796152,1.796745644725326,11.04382226728044,1.200084014776982
25.474298306481366,1.806465605800078,10.819816494862687,1.1913199899783
25.616776350603935,1.8232538111718317,10.617225805719427,1.187401557078602
25.771465846642077,1.8263999467118934,10.405238132723554,1.1745164361412685
25.91720871375393,1.832587041890809,10.196888675838785,1.163302646521116
26.025906455777534,1.829161112729244,10.001060597048252,1.146669406235543
26.184570936733596,1.838927365824355,9.817046091532882,1.1389963365744469
26.317639375072755,1.8438279674844873,9.637627259111346,1.1283554843396677
26.437502661270493,1.8481375465458258,9.478633643273177,1.1181989950248632
26.563323319087463,1.8458228036177684,9.30571663851228,1.104499871639627
26.70294823274909,1.8569709432178667,9.145558090703032,1.0986140180958561
26.820984121916634,1.8709697779687549,8.988259129190341,1.0946387486943594
26.936369844168937,1.859291973669571,8.834367829869109,1.0759378151478876
27.068153068184067,1.8624586399820426,8.690030307415547,1.0663479142133767
27.184243997348165,1.8635291902311564,8.556934958060634,1.0559438859678092
27.30188302807521,1.8662286605265932,8.42747632978594,1.0470569036501165
27.432479014870434,1.8764058602586744,8.295447139540494,1.0423103225848436
27.557047332624364,1.8876391919771998,8.173583770260127,1.0381022573116905
27.678462400146163,1.895263112410928,8.068222749382889,1.0325585625551772
27.786224162737422,1.8887433999656769,7.963595260737928,1.0201090424235693
27.916523989246794,1.894326076832032,7.876110589015094,1.0147411208788226
28.052455496927813,1.901075135262418,7.776311270882065,1.0098989690712232
28.170539038907553,1.9133423745769842,7.689539585583798,1.0080352328876891
28.30136575589028,1.9089073486933401,7.624695657642444,0.9983150863537702
28.440943816227044,1.904973329649673,7.560715003512558,0.9895783976351642
28.577447833389556,1.9165713331968282,7.510258772367171,0.9893321134844376
28.68159752000233,1.936461309300996,7.467631602783749,0.9941599034029325
28.811577807046817,1.9312583168998747,7.4213859474600525,0.9864453700045162
28.936509026195598,1.9216703646568087,7.393404756108842,0.9768445207774579
