$D^a [mM]$,$D^a [mM]$,$I_{islet}^a\ [pg/islet]$,$I_{islet}^a\ [pg/islet]$
0.5186955921083486,0.18600867517651917,3.0387946698994663,0.37308318852606687
0.5683409757194153,0.22086287648922912,4.076940557033894,0.5232028333373631
0.6395762256044023,0.23543095922664845,5.106615807138666,0.6232799044230944
0.7278433702815164,0.2508731213861055,6.127131973215908,0.7046141075451
0.8294859730673785,0.26731477326731584,7.1296079807887,0.7730034444983541
0.9421453548246148,0.2858523239650889,8.119931328992145,0.8364454488626636
1.0645371530952927,0.3052895758248103,9.100143437511681,0.8951206677269723
1.1952723938576182,0.32398152029449334,10.065375118829266,0.9463410312874975
1.333838955025008,0.3411479409773184,11.014060522266776,0.9891028422339823
1.4782266907624935,0.3615760232656202,11.935553258483367,1.0382036208120478
1.6300604938949907,0.3795134088277978,12.858936661147295,1.0777106054882881
1.7843966405259468,0.3982036827272303,13.74261668393421,1.1177703311383205
1.945355399040458,0.41893188112914,14.59507498699066,1.161550376220985
2.1112087824605927,0.4372642544268318,15.423329581752443,1.1965823029581715
2.2820249702357036,0.45524344859974425,16.24653157029687,1.2295419193842583
2.453597811238696,0.4691279776931416,17.061571301656155,1.2512069763694378
2.629321672261758,0.4875585303579799,17.824793317073844,1.2845877354503217
2.8122670073869545,0.5072307358450194,18.582286574381435,1.319586654419654
2.9958963511977155,0.5242245771581707,19.30546475511721,1.3464801596612983
3.178766517768887,0.5402776978346868,20.021495529534732,1.370852150995656
3.366711442337165,0.5572184218099693,20.71208199900513,1.397437225795121
3.5565582407155736,0.5764532113337159,21.37104861187259,1.4288072350989838
3.7492592200331263,0.5910599778254487,21.999627685556757,1.4477070634363718
3.9445834100748693,0.6048109649085456,22.615161588775997,1.463977337032185
4.146093901314025,0.6175255185767775,23.199921282203572,1.4771746652535382
4.3438484343653805,0.6338672997839881,23.787551782450368,1.4987415973107967
4.548593628062071,0.6511287953155901,24.329156155286313,1.522297446684382
4.752877030562114,0.6642568364438608,24.84088656947214,1.5349634834545562
4.957165317704033,0.6808414138813987,25.353816680047164,1.5555990045903507
5.160852709080949,0.691844389324988,25.841466446201203,1.5637073064469649
5.368076268710509,0.7077304994197867,26.30024559588158,1.5825283696221275
5.56918657245797,0.7217006449763634,26.718204932332387,1.596516632272634
5.777220990284642,0.7360267819608431,27.111662854192204,1.6107527964240456
5.994618054025024,0.7481689185249064,27.522589179250676,1.6194551420766852
6.210525649657176,0.7635562942568911,27.91701464078259,1.6349894932759372
6.415691005198205,0.7840102458191236,28.245843601680527,1.661213199260586
6.624717462033368,0.7980314726708774,28.586041033037542,1.6735291530721863
6.8400314037283145,0.8080018113354438,28.895780025958967,1.6769959235948126
7.053440811193736,0.8185588452605801,29.168645828827856,1.6810457626063284
7.275469652894232,0.830367455717029,29.382688659469235,1.686466840548641
7.488622049198456,0.8432693877893711,29.592215022353148,1.6933342554725581
7.700710499666071,0.8531593700952177,29.798262944043163,1.6947596446294637
7.921482790210162,0.8680762190913156,30.01785397125394,1.7063402643800025
8.146760784481986,0.8802750016518052,30.20172560926645,1.7119081911257426
8.370454106791287,0.8860578005452924,30.346191087737175,1.7042526884562952
8.590149963843723,0.8990690393999274,30.50168569926007,1.7106988341603224
8.81581272871731,0.9108460675564488,30.62322456981499,1.7146378650261025
9.040636541001811,0.9229097610111394,30.721659411658415,1.7184477886180685
9.259796105496426,0.9358774009978269,30.834290558879463,1.724158596605335
9.477775484213442,0.9469160047618823,30.902757503820254,1.7264648499346078
9.69893182232329,0.9567655024804697,30.917386047896677,1.7256755062100821
9.930042979900751,0.9692300413314754,30.9795485888506,1.728968881697923
10.156997149479645,0.9803938529724048,30.9949689369057,1.729922800764059
10.375036565796396,0.9904245509329342,31.004368371056184,1.7288244689108585
10.58484805497297,1.0015878113896022,30.96639279073017,1.729909694612383
10.807329505939347,1.0148678595671954,30.937819881813077,1.734170774481044
11.023080405994426,1.0251504828139828,30.912629983427543,1.7332287815259062
11.237777072685228,1.0329571588350384,30.88146079157683,1.7285311094406761
11.462146222766764,1.0435734880150287,30.816799602467867,1.728142831027047
11.70122786247404,1.054000924249899,30.72697524199658,1.7259723878474282
11.938293766108501,1.0665224662311148,30.659330836161836,1.7266233321393758
12.145642137472278,1.0737929994672806,30.53428615889537,1.7193533374146324
12.371036343058096,1.086445143533222,30.41260862113058,1.72075722672524
12.580748691301853,1.0960164712125373,30.257568679469195,1.7168011729807606
12.815849521823463,1.108517779211898,30.120414634729396,1.71710168243055
13.040666135501304,1.120845283057476,29.970286611463603,1.7165662431275353
13.255133085298239,1.1299145713153291,29.807677636270306,1.7113144027207665
13.479347155410945,1.143161701259885,29.653269285503054,1.712540519970111
13.707546337978266,1.1450288689252504,29.43090693100418,1.695827491842569
13.929406420567911,1.1498521023065804,29.23804468155217,1.6831093255873801
14.147216009112945,1.1572082043371414,29.036045181936505,1.6748200476040793
14.357819695884523,1.1686551465215145,28.804121788631864,1.6723973227880082
14.557495430462783,1.17533268108415,28.609302053726434,1.6636208673651898
14.766669149562016,1.1897913397884046,28.349173146057094,1.6658422414080083
14.977770799124576,1.1970746516527657,28.103061293621078,1.6567979445398267
15.200936426351557,1.2111343515347563,27.849079163225003,1.6568896671940716
15.432112057764149,1.2177065445185844,27.60579924107813,1.646155474589099
15.63422065096586,1.227705811525435,27.351319085228432,1.6404817294623328
15.848353202844617,1.237693411771555,27.06087522342113,1.6347912206479829
16.05685777288419,1.2369333542246066,26.794834101486714,1.6145691114789058
16.273692370794183,1.2467675491484218,26.50184802041511,1.608371228568706
16.503640173758217,1.2585681444003616,26.221058682386236,1.6039276700988367
16.71281869907737,1.2675130747026215,25.933069727071466,1.595851618800206
16.913787083447808,1.2730443368528033,25.621992721910765,1.5838087524626843
17.135388826721957,1.2849164652922096,25.329814834545907,1.5793979433488552
17.33839321676911,1.2971771819317242,25.017090629415133,1.575243580192643
17.51547408287397,1.300441358707311,24.714621526388015,1.5606762953012332
17.705295651543924,1.307931509169583,24.400626358100617,1.5517854062376866
17.91417093762895,1.3139388020811653,24.0468452455065,1.5398906743203407
18.10912738895375,1.3161173058331987,23.733728033207615,1.523176551792253
18.315284327912003,1.3290204284592582,23.432038139409638,1.5196572105542754
18.503559433369915,1.3349731008518193,23.116939609754215,1.5082450460249863
18.701974104671002,1.3463360527318293,22.781107895708676,1.5027090236062026
18.887283178956626,1.3389359326412007,22.452978984429585,1.475919689769796
19.10007937009589,1.3572031852309372,22.13820651654115,1.4777661343850175
19.29026512479033,1.374514742115045,21.812751999002213,1.4780292769264645
19.502281208259276,1.3683005221307145,21.50239308127457,1.4529526734745142
19.71717815169814,1.3800589544706836,21.169252721051386,1.4468167355522465
19.93582280494122,1.3870357556358182,20.837905412614923,1.4349315462807566
20.141764258578316,1.3990079501455916,20.521990466228704,1.4284512237271634
20.333092058447605,1.4003366012323646,20.18138138163713,1.411379160861265
20.51011041970159,1.3929774109073207,19.855702200314177,1.38602459290929
20.68970385384467,1.4160167233685457,19.523996419992567,1.3914189443248242
20.858858085730926,1.417772075111075,19.194816223998885,1.3755024365441655
21.02841113551325,1.4174075268808684,18.876002076471767,1.3580436161112297
21.2133228695695,1.4319930948824842,18.54080771499191,1.354697437829185
21.406690836001445,1.4351820522633982,18.230545409926165,1.339977936536802
21.579172141937583,1.4456704376715155,17.89216564335695,1.3321167525480526
21.77827139822292,1.4483180942412568,17.559128182009733,1.316548187814664
21.955556061986155,1.457044850713537,17.24715587997788,1.306708072682806
22.119471877728785,1.4545504059255758,16.910429767809926,1.2871677394442296
22.302088839689276,1.4707427462609965,16.5973806540917,1.2841555003189271
22.482197479334346,1.4767745535454873,16.272036298963926,1.2719236611135603
22.64613726673857,1.477934923566143,15.97636885032384,1.2559244251030262
22.832774787662746,1.480945134643554,15.689084523267875,1.2421960221132384
22.998206606624247,1.4964562339306462,15.390002199634603,1.2388417960239055
23.162092940149485,1.4983485814789288,15.095556485834768,1.224090493063291
23.335049987943155,1.508419208908094,14.794417698216119,1.21589122949731
23.502911807234238,1.5113208903714233,14.508418237732391,1.201793341547818
23.66384939773262,1.5046832811696107,14.218860440559519,1.1805585348034178
23.82512309893753,1.5099949315619825,13.937907162046077,1.168950547748888
23.944172598581467,1.520944835639943,13.66688852289396,1.1623040168134102
24.11047077543006,1.5269727398956658,13.383369746061128,1.151792445193916
24.25164966741908,1.5303099391315977,13.128647756307092,1.139087387385606
24.407131367442748,1.5344447670079349,12.85134103092356,1.127252616530681
24.571742929566486,1.54166051488698,12.607596264480247,1.1175283897269497
24.742764349565896,1.5409645070238636,12.353078788185476,1.1022686244178752
24.938401060587772,1.549877412287627,12.10239898921521,1.09347482257284
25.082129181401015,1.5547325184482423,11.869030463439325,1.0821477284225556
25.21812449510912,1.5589062288468665,11.63652079006081,1.0712969051425612
25.376267652198855,1.5599643695410872,11.401203918354339,1.0583118741471602
25.53548799974998,1.5612635827337502,11.181541400525758,1.0454480785225
25.669252810965535,1.5825963645125696,10.978523195564254,1.0466473978744892
25.805075500761227,1.5836207710394117,10.770875153237002,1.0347515586462952
25.94000334751602,1.5852868758820398,10.577473692943123,1.0235430735679174
26.06152881416397,1.5858940980521632,10.382529894898505,1.0120543690919528
26.205203792842696,1.5945323502872324,10.194122002613465,1.0056451270488593
26.343339633221422,1.584949064925623,10.015567208645137,0.9879698668593204
26.48244365628434,1.6035182965369157,9.847077917325636,0.9882821687220243
26.610290560206952,1.5999717530650486,9.680268943752285,0.9751808438779939
26.756567002431197,1.6153246751386563,9.514033069149065,0.9737372931474086
26.93674156915707,1.6127695556351167,9.365249127107091,0.9611867500558713
27.071708639249717,1.6118325497184072,9.218839678787894,0.950229683869894
27.185431477751774,1.616600234703645,9.083004451865731,0.9434643626701915
27.333956472920534,1.6328775622943337,8.959148850966795,0.9438327176713689
27.44613833208423,1.6316416250790755,8.828457013487842,0.9341172383268113
27.584894002129186,1.6296058759257654,8.711236517436571,0.9242946402778767
27.723226617035134,1.630212119628922,8.6030278289766,0.9163414008062193
27.87033484449866,1.637122014144717,8.504241879424121,0.9122626222819492
27.982620916386793,1.6432419171990347,8.410427469517565,0.9082457471629956
28.122255103670334,1.6471652363199936,8.323324874550456,0.9034186045527662
28.23364272961462,1.6467654253781847,8.249879529346376,0.8966851000778164
28.38108319330245,1.6573774153412015,8.184460851919205,0.8965620364546832
28.50812854829581,1.6551030193725877,8.124831851980407,0.8896840633452279
28.632478705031147,1.6593072243634652,8.073325641190005,0.8867958207903206
28.76378570993058,1.6637093702703079,8.030771822942489,0.8844970833190617
28.87871201301637,1.6666290855495225,8.00323977931178,0.882018570732335
29.001130518988678,1.6706567816064308,7.9764572020676,0.8807099559655687
29.11602585805931,1.6800354842531675,7.963669350204828,0.8826175261779403
29.234978390416455,1.6845361610535963,7.956506961088568,0.8825628257042525
