$D^a [mM]$,$D^a [mM]$,$I_{islet}^a\ [pg/islet]$,$I_{islet}^a\ [pg/islet]$
0.518775496022934,0.22221573793741475,3.0387390162886163,0.44507668390141564
0.5682715052710652,0.2689142081766735,4.07548837433194,0.6371795729097689
0.6396595297338943,0.2897719617766035,5.10716134072705,0.7667206046818812
0.7272910760074518,0.30744233147262007,6.12632010329292,0.863353114165536
0.8282103609792486,0.3259672215689939,7.134358587829222,0.9431287212196703
0.9402617120981827,0.346729684939617,8.126248024029087,1.01566167457638
1.0611110200894114,0.3701849593542495,9.094741564947713,1.0868339489115941
1.1939006083125872,0.394631327019238,10.060547464343308,1.1538052637071616
1.3308519101817964,0.4165869165249721,10.997525496686533,1.20838990904236
1.474838013501553,0.44534402463615586,11.920382527961959,1.2792898955289747
1.6265930863096323,0.4663605422700491,12.8070889973326,1.324227557612314
1.781950502217276,0.49048115574354795,13.687800131625526,1.3753987532478047
1.9408127688972583,0.5143764872627603,14.547901800470989,1.4247826518936442
2.1051888727068375,0.5328673813904404,15.389492714599168,1.4577756596578937
2.275092864836458,0.5533938200497429,16.211217745554354,1.4950083117730246
2.4482898395897252,0.5756773450283228,17.012053960945064,1.5356324780282387
2.6237267457184723,0.5984706624232565,17.79059051582946,1.576598734422072
2.802878551776496,0.6224844904106378,18.553469740835055,1.619959649110569
2.9853260389556864,0.6437091634593657,19.278459216187578,1.654860881226434
3.1691003231889296,0.6635718321342347,19.975494308864242,1.684957366594592
3.3576837319452237,0.6794078427198768,20.66870941376483,1.7045354251771387
3.549360679792326,0.699211825419869,21.321735265871574,1.7332992044687883
3.741025298821338,0.7226906508092225,21.967735315759207,1.770343095426976
3.935210491369581,0.7361445377643141,22.57094322676816,1.7823438563489036
4.135975618923993,0.7600385747125769,23.177611346562976,1.8188726835934108
4.334763002947048,0.775320720055965,23.729059709226004,1.8337859734724407
4.537304452580877,0.7953073800472561,24.2960836866599,1.8596683173350042
4.740131444871172,0.8119922584947358,24.84501958418444,1.877857319801088
4.946718721848624,0.829961274159446,25.328393678283543,1.8982029208509992
5.1529510668412435,0.8569777282753468,25.824756478565217,1.9381559137820445
5.362666187221091,0.8736661833176682,26.276568239926874,1.954062774800273
5.569153571078766,0.8810753220180407,26.71272405836731,1.9490151240755638
5.773512682909772,0.9035972962620719,27.145201566582674,1.9781209849676122
5.985139312551694,0.9116579935948544,27.560722524997693,1.9753273136409013
6.195997474241696,0.9362632875626757,27.929606782129678,2.007641078571675
6.404780780834425,0.9576704368730283,28.284963643373732,2.0320984244796714
6.620259532814627,0.9707582037410565,28.622702823947716,2.0383839475697894
6.840842832155403,0.980757786697866,28.89736353503546,2.036899961347192
7.057123597320579,0.9981838892694659,29.188661257855838,2.0502305916666415
7.277102969257362,1.0150508140780745,29.45838616400768,2.0626391072103667
7.497431476802628,1.0294296138849506,29.681669264447716,2.069199309362522
7.703925853816949,1.0403766999692166,29.893316736999548,2.0689400681622137
7.918101696316557,1.0588777254026884,30.072195810130797,2.083948027428878
8.122836829886165,1.0777108489954657,30.247032861640044,2.099126120630212
8.342560816261672,1.0953294728141325,30.391240476116614,2.1115175578366645
8.557763318158823,1.112331756166482,30.566036473969476,2.1218866383475286
8.771178901928897,1.1172911090894235,30.68411320124239,2.1097335789881795
9.000015302200895,1.1292408589829457,30.80885074056868,2.110002116359473
9.218787860564737,1.1412284597222688,30.913674182078054,2.109879505272269
9.437328894172976,1.1599304851784886,31.003260910552637,2.122530668830198
9.648173101869425,1.169864873739064,31.036056245476846,2.1186109662067603
9.869176555021948,1.180626801134335,31.10007825785767,2.1159148104870558
10.109131837389162,1.2005461250592806,31.131460191961473,2.128625681135849
10.328407864769238,1.214561594582039,31.175791481169288,2.1301660650711383
10.545082016637041,1.2270098257365103,31.1599653955507,2.129816489342266
10.774055293066656,1.2335292409619933,31.121711158350074,2.117864988949316
10.995869076319018,1.2523946136782464,31.09651581992532,2.126881852963121
11.20490143521681,1.2688887925744892,31.05709546627139,2.1324798382179604
11.428675186975932,1.2835232004568633,30.993424531126646,2.1346359613272496
11.656505858333915,1.2993983458458798,30.905705480711827,2.137405011514838
11.895626529781685,1.3057596220171035,30.82574687010725,2.1236680103111176
12.10786540903617,1.318271572443918,30.69505667917727,2.120151447334632
12.33990698704405,1.330656642775454,30.537528951827124,2.1157135374241993
12.54967302637997,1.335655578790211,30.45827598110034,2.100158547078747
12.771388838633028,1.349775571564126,30.31372550749323,2.100399036383881
13.000619701321252,1.3670776427884956,30.13043015758618,2.10337926114002
13.213770256777417,1.3788014508221975,29.936453581609523,2.096878496488261
13.426149544279594,1.38980753401767,29.769542669846263,2.0901223889694958
13.644718079206967,1.4027436391348806,29.575846328334087,2.086398362358944
13.850026784637171,1.4136342559486506,29.38412221393161,2.0794753179404055
14.065892506171133,1.4219798270442447,29.16173743877758,2.0686492985105844
14.262264381906096,1.433025927522512,28.958551909841745,2.0618658078157446
14.476454949769527,1.4482002448517362,28.748945444677126,2.0613810762138973
14.69786815190696,1.4553793872642145,28.546937546340583,2.0488079805129757
14.92485146858049,1.4648334774523741,28.277654003789728,2.0383578558584445
15.149630188532374,1.4742829835059577,28.02523425511792,2.0268371137506724
15.362689274289425,1.483816876147214,27.760263933501694,2.01578306562011
15.577647619054414,1.502656704781034,27.504466106554027,2.0176998737589162
15.806393131758137,1.517299451601632,27.22724334226376,2.0132914116186873
16.01868999772071,1.520176171670962,26.942090797217226,1.9926828864458075
16.20773512750538,1.5305542843964057,26.657980139848597,1.9831138797417218
16.42593980450644,1.5405653294860027,26.372750876922314,1.973085170348965
16.64032521946006,1.5467473786093917,26.079553129390398,1.9573553940160302
16.843968845912933,1.5632499798260193,25.788346825639394,1.9548938627670915
17.039847308717963,1.560855837057968,25.498832950776453,1.9292690730983657
17.254879702495348,1.5839097150429897,25.2081169632609,1.9351656815756637
17.453215566455988,1.5762190257399977,24.878470656345367,1.9025257120380457
17.65194158708593,1.5922083124109898,24.56539101575682,1.8987716794364649
17.86156414179742,1.6058221648218562,24.239292955697138,1.8916743401156455
18.080620876010748,1.6205998098031233,23.91893491255885,1.8851912011184526
18.29137194062579,1.6268884540487643,23.565165971875576,1.8681530841550738
18.48279282617652,1.6359912470618996,23.231325583983857,1.8546323634451374
18.69684721485349,1.6451578236140607,22.905339046476175,1.8417091889383495
18.87716723339129,1.6422159357226171,22.546533628747838,1.815080030839571
19.07375542274397,1.6677638910032877,22.22756815960554,1.8205043778983827
19.25523725265045,1.6760196210576226,21.882461118915657,1.8068352355662542
19.45795788801187,1.6806952613988766,21.537458662499144,1.7888502218356066
19.650105029027724,1.6874784314010887,21.19404887724765,1.7728567862261375
19.83425248480758,1.701927634106622,20.87904350350454,1.7655993113315718
20.028228354391665,1.697600476174984,20.537305670252348,1.738963507140889
20.216530219420786,1.696146771881406,20.193064535371626,1.7150219527400177
20.398121938719008,1.7110123720675607,19.868967852451846,1.7079375890020878
20.58524677883514,1.7309356876102786,19.541785786381723,1.7060327846560481
20.766015241582707,1.7369113488884886,19.23595467454446,1.6904159842513555
20.98031043696239,1.7451963457482271,18.909017306220015,1.6767653565709508
21.16526374184375,1.7527159872234526,18.57707490085642,1.661564141448978
21.33020630675903,1.7454216409574244,18.23624876768818,1.6329065163253929
21.511421939726773,1.776521932341966,17.884379240799298,1.6399259666348802
21.70092795978093,1.7773554313801054,17.563475596945842,1.6182569300653566
21.882967796572615,1.77598148637489,17.242350341811328,1.5954148688959737
22.038465311837527,1.7885469213190983,16.927702997898383,1.5857328908583508
22.212917840358056,1.7809140607210139,16.62644846727424,1.558747350065284
22.382751924819946,1.8000778774842512,16.303194117125194,1.55495826628771
22.56290463789979,1.808995037096525,15.979652318972944,1.5413942339575433
22.712308265863285,1.8133339347629598,15.660816756460525,1.5240025001147488
22.86314526566365,1.8223708528259126,15.340654605321207,1.5110772266924364
23.029220937559025,1.821918033750679,15.051625135494684,1.4905417420538911
23.181614290567392,1.8262418038957107,14.757049454255506,1.4745065448861048
23.359063509211445,1.8436186779318626,14.458589228939108,1.4686610431951206
23.52410677212838,1.8511615457287818,14.177937257386512,1.454580565193752
23.707546008988622,1.844903718314905,13.881212447262259,1.4297463663320256
23.888458609400153,1.8676113850296854,13.603789168980652,1.4271390238919197
24.044863963508966,1.8709288565357212,13.324761653129844,1.4100011230157046
24.19790971253081,1.8887939707187975,13.042550260869879,1.4040517668531194
24.35363607572059,1.8757902118585261,12.782718579693523,1.3754514358870629
24.509968032647826,1.881076459480894,12.523496234429864,1.3610860405979208
24.657992972874897,1.8876363605247888,12.274916390933305,1.3478293241874466
24.804750260362674,1.8884199337214813,12.025153800565986,1.3307547249873901
24.928123260966775,1.89901084055795,11.801560628545094,1.3213368934898877
25.078472935020656,1.8960417102789866,11.573483111419888,1.3031366360653156
25.226376480174594,1.9048869732256217,11.35462531768792,1.2928982598013326
25.38670544788785,1.912362897078381,11.142407742392106,1.2817659053530688
25.547500140423637,1.9176458362946138,10.929814841082916,1.269115256895665
25.675976470750115,1.9346880560055264,10.72025861214613,1.264515152710234
25.84593655895805,1.931698571504262,10.516391614358652,1.2467863916209945
26.007072317878272,1.9360036822936317,10.329613747142796,1.2340039877379458
26.145882220820038,1.9465393871017311,10.144414760601366,1.2259789297677839
26.2739127466667,1.9541432062558937,9.96146667260558,1.2165014414114048
26.418909363825428,1.9605988309997964,9.795251536136691,1.2066586758365148
26.55215530716971,1.9482262010089115,9.622660527976665,1.185557873696689
26.675952910198113,1.9732795324780608,9.447421507798865,1.1872503356894206
26.783215437486948,1.9698333424823382,9.302403603798874,1.1724015318485612
26.940179885794834,1.9759291410746285,9.160906850095389,1.1640286131282604
27.064310025321763,1.9903589122915395,9.006067668605073,1.1601599836557668
27.22766983746299,1.9847115245286995,8.882241434165286,1.1447888555460224
27.358181916593804,1.9932540066907376,8.752532912059488,1.1383772189515635
27.491930455655975,1.9932206796498246,8.633773936659768,1.1274938292109706
27.613861133232728,2.0072393596336764,8.517636863359034,1.1250114323334526
27.718179915323027,2.00466064145914,8.41071898663873,1.1138345314472742
27.8248851936985,2.0050341808519105,8.311451629751042,1.1049983391735372
27.936253981215565,2.0125608952106973,8.222628323709943,1.1006551023324236
28.077413402707574,2.0037461294549996,8.136754830386815,1.0875442720412674
28.2211237425672,2.015803148867334,8.055819666833651,1.0857114073300116
28.364871753698893,2.0179312589061382,7.9844864954901755,1.0788584741298797
28.48425828973434,2.023478553611493,7.920994120425538,1.0746487093133819
28.634266814509832,2.0382446003454557,7.868431431261334,1.0758228459682604
28.728411245482242,2.0399256465995466,7.8248588791174765,1.0709054985150608
28.834253059512136,2.044848146838482,7.787378846727481,1.068683697803613
28.951952398093933,2.0476209419909437,7.763075541597911,1.0657813007604842
29.078318017047323,2.0499047905242547,7.742669532822043,1.063096066156072
