$D^a [mM]$,$D^a [mM]$,$I_{islet}^a\ [pg/islet]$,$I_{islet}^a\ [pg/islet]$
0.5186390568664867,0.21041480837566287,3.0380953464144573,0.4215776764237748
0.5687309979534441,0.251286929193623,4.075434753100505,0.5945162264801791
0.6402762519085479,0.2719350802998841,5.099929795833126,0.7187010520473683
0.7277324865356825,0.28787547447168976,6.11397423380965,0.8074480084012482
0.8291596601580145,0.3075592040074554,7.126915638208581,0.888624212179884
0.941280307776013,0.3296100959739831,8.11531577005789,0.9642828689613138
1.0641952537122625,0.3518306850762399,9.085362127374026,1.0313665999359822
1.19507104457084,0.3733348596588757,10.0411578873478,1.0896449516604383
1.333488093817167,0.39579787596535704,10.97871871284354,1.1461671939721008
1.4765866495739637,0.41873289075003756,11.901843709949594,1.2008252308938978
1.62556341888397,0.43964223013938347,12.807588914610758,1.247417431572553
1.7833152166050004,0.46084564573702047,13.700127757648255,1.2923951809439955
1.9426612781986625,0.4840712747739346,14.54711047325331,1.3406647582031737
2.104772427065709,0.5046308509010804,15.37739197997825,1.3800631634096179
2.272167684177247,0.524664199526734,16.186357369716546,1.417064556041344
2.4481257711986513,0.5432818727055314,16.986737362494733,1.4486082870109454
2.6250907605527325,0.5666818637438044,17.753291660618775,1.4915528279627561
2.805270599794139,0.5878814732704397,18.510422641449214,1.527771726309944
2.9885619244668526,0.6028595416415629,19.249303084150576,1.54745265186646
3.1764141680065077,0.6232292612294514,19.946765920905122,1.580144595359489
3.362773427401966,0.6417648036737673,20.645819122511906,1.6075093686968076
3.550906258830168,0.6651157173637124,21.310313558954594,1.6470243019620576
3.744897249894277,0.6789740802290628,21.969301661644778,1.6622193642268168
3.9391256459750092,0.6989168510394929,22.563106912137815,1.6913678265037413
4.140702595066342,0.7159794059732429,23.14149161098621,1.7118946245520839
4.334367711367826,0.7328706711263322,23.68992877397753,1.731583545512681
4.535443160925998,0.7536952389588839,24.253037864931347,1.7609966050636114
4.739970201520171,0.7757857594831531,24.773566419897357,1.7924513301971075
4.942185628056747,0.7881561295882715,25.273643853875146,1.8006087980908996
5.150423676515818,0.8053785417857089,25.737859279942686,1.8195309011868877
5.358418395370607,0.8152789315392477,26.219861070587033,1.8214714893253017
5.566723065792538,0.8347241443120361,26.647114385214216,1.8449845445671953
5.775901549241199,0.8509318027506585,27.06028095761577,1.8604196527043522
5.9846497613122605,0.8682822098622432,27.463047834447963,1.8782883347443091
6.198522496591701,0.8829642328490029,27.84165428364074,1.8899330658625413
6.410127355618017,0.8968491916437517,28.201246091960478,1.8994508220410344
6.631070855786131,0.9132748508683324,28.520792337970637,1.9135464345223379
6.844934271184663,0.9271916053191919,28.821621975159402,1.9215199697201275
7.058013899531382,0.9420746881862455,29.097712084249753,1.9316647848349322
7.279674656247534,0.9570423285841625,29.363814774258884,1.941446834721193
7.495503032209948,0.9675337782798993,29.596152024872982,1.941617771139142
7.708932444567233,0.9797748820759025,29.832531907759133,1.945734567419126
7.923166257864328,1.0005185363632365,30.034117684843824,1.966773222943152
8.142726625216753,1.0159122614055724,30.18485697958091,1.9759193115462628
8.360557189102465,1.0261488591456676,30.355599825163115,1.9743357333329146
8.568946645724107,1.0391908976200854,30.475028253923522,1.9786902241652347
8.788930640682725,1.0555162102109583,30.595426378391345,1.9887418234192344
9.010797628449108,1.067162806698561,30.724739703912444,1.989628464028146
9.231025755428862,1.0849149142257202,30.820940166836657,2.0017374886780557
9.453424216555689,1.1026102899332926,30.851904331845073,2.0124156811418143
9.671443770368901,1.109133576640624,30.903395485824245,2.0020400392921576
9.897751799011791,1.1181961697561782,30.932792430475125,1.9967042110812154
10.121762282932856,1.1375702948231285,30.966339847901693,2.0093915602066725
10.334913753052094,1.1513046005820444,30.93931293127632,2.011822175821929
10.563129263835112,1.1573268669288819,30.91510323741647,2.000162930386787
10.790773985586206,1.169226351417988,30.89230443043392,1.9983014980878475
11.016567208853925,1.183684692609385,30.815901984342357,2.000414042470327
11.252289292327472,1.1989672697851064,30.708369054822377,2.0024208871774336
11.463053653446819,1.212402257812351,30.64478193690551,2.001677989195085
11.691118696114124,1.2216916398186288,30.57520642442624,1.9954404530849912
11.917802652725157,1.2253952392683412,30.45826049490147,1.9792387838983405
12.140263340699173,1.2351899910669182,30.37414428447393,1.97307469313323
12.347896580803228,1.255067894076459,30.230987376861478,1.983359504455035
12.568613836415414,1.2665617457210419,30.12357865122743,1.9800537903151365
12.793612550613052,1.2761328312546805,29.95800669067421,1.9730798103269378
13.007936919176487,1.2975804681820995,29.79421914828622,1.9837674506486536
13.213433652780367,1.301592488170466,29.66402422263687,1.9686252573454686
13.427469511227377,1.3084924845418775,29.474715758590673,1.9582320226085532
13.630329614457143,1.311635784012815,29.289967758100897,1.9415776605546675
13.846543928412665,1.3241971291987908,29.114692876581742,1.9392291079248072
14.070530937627586,1.3418403169605377,28.905037882287594,1.9433918760112263
14.291457992027848,1.3508110030912976,28.72245995552776,1.9343145367619243
14.500639555598097,1.3645421541941438,28.48953884013291,1.932311003935831
14.72250625835546,1.3728807484699117,28.24462958727566,1.9218261599640063
14.941367081728083,1.3891147498222425,27.982932753377046,1.9215965003004143
15.162627687303084,1.399324047883722,27.744270507011475,1.9128431568078608
15.370308629518318,1.4005018244475513,27.464018647972072,1.8920318632659479
15.585712925360049,1.4093693427040928,27.19939982799185,1.8816928175352063
15.783958389002043,1.4212820937905728,26.944499649612602,1.8758743664709436
15.987523372078922,1.4324418695370882,26.69133513419455,1.8696670158614448
16.210992552198263,1.4409193332711072,26.41148110404011,1.859175095760254
16.427930232383687,1.4486780737748584,26.098120989658046,1.8464037032465355
16.636600076093767,1.454221950435002,25.81178016846637,1.8308664026941663
16.831390965419736,1.4576637076948085,25.4881873775828,1.8132992835816149
17.054572626979997,1.4824635453454804,25.1895450581667,1.8218468147938427
17.27552821554577,1.475378758644438,24.895634826930255,1.7906764615897284
17.450712829895014,1.498011740401151,24.56514218308097,1.7964497160098853
17.653108779196074,1.5049459122869022,24.249277199675184,1.7831681790552063
17.85775678983842,1.5168631936086208,23.919199466868854,1.775283584926201
18.058912140910127,1.5167506176789767,23.581312813525024,1.7528913157651724
18.27432982221438,1.5287140868038773,23.241566047783262,1.7441657828671198
18.467688787538965,1.5300650846026693,22.926222873672245,1.7235840037789527
18.660254170400624,1.5480867727206582,22.59863660568097,1.7227091410497157
18.847659119327073,1.5558196759361302,22.26639447733213,1.709956166185464
19.04923454076168,1.5580325516233275,21.912355377792103,1.6906775563645824
19.22502699677717,1.5682922546152673,21.562327445550363,1.6798867742717987
19.429250609712433,1.5805577997369058,21.234508867673796,1.671501821569358
19.6325807661779,1.5830433377743043,20.918362927073527,1.6527426520812578
19.819885198420145,1.5962500696839725,20.5731635356316,1.645350347037029
20.009365126931396,1.6032148925485978,20.24025214413137,1.6311797594251407
20.21259188985019,1.6121291131114652,19.906253417878077,1.6189416551008653
20.40818149996744,1.6164679768955605,19.563854291642453,1.6016838222926097
20.575213383615928,1.6211773545903072,19.25217135079109,1.585681968288012
20.763243759011914,1.6364623300451562,18.914523223170292,1.580452772393979
20.949868292620614,1.6441825994025538,18.608801702381538,1.5674231596544408
21.127361159081907,1.6514350639349014,18.273333789289442,1.5541053578306305
21.299921378908387,1.6579231728930035,17.94010874737939,1.539675366941089
21.454699034022916,1.661487223519888,17.627265751398856,1.5231987655687391
21.634405756498964,1.6730867775628173,17.2927560658607,1.5140175465821513
21.827349707041254,1.6790573908137212,16.96646845850783,1.4987290183019255
22.023913404713323,1.6803107950119196,16.64510361264935,1.479045411777622
22.198550471384735,1.6983117024357623,16.331811724796385,1.4744575304277823
22.380440408350257,1.6898943300642424,16.012145869878317,1.4470787944625598
22.54443580388169,1.703715510402491,15.704248520796986,1.4392142119274989
22.68818703503222,1.7000065497270611,15.369621712693947,1.4165938930451207
22.856449635494485,1.7138053342121322,15.067535499529614,1.4086545836130502
23.040542553991884,1.720317924285519,14.767074964422836,1.3945942102542472
23.223322632550353,1.7222044209509788,14.484645553728397,1.3768936292005232
23.389794477007886,1.7308096315192463,14.18855604647617,1.3649136364206804
23.539383052294774,1.7344250431473667,13.90059745043406,1.3491668764221996
23.680578411994897,1.7514122417628488,13.620242670327164,1.3443154290691754
23.8524375222544,1.7609752613119913,13.33748617764811,1.3334645225724695
24.025456549521433,1.7605851853318897,13.057803954856892,1.3145043670638983
24.183542752313333,1.7636789040455338,12.792208639112722,1.298619366725242
24.30978257401792,1.7596109043095864,12.52729481781026,1.2783402040340333
24.478059540318547,1.7649997251691796,12.278436312591719,1.2653828443610202
24.64940639243348,1.7852114657291387,12.021337895234856,1.262620199842775
24.802228462448358,1.7894958278567459,11.763647464004762,1.2480434615274152
24.96246836797467,1.7866769686873443,11.523594541011796,1.2290028722933377
25.123691020505852,1.7936842728493332,11.28034440810084,1.2170745224931376
25.290662878654693,1.8020126891970656,11.053349411997491,1.2061350542095388
25.414612500815664,1.8120426962399154,10.837080335537145,1.1971236358279544
25.59224259113982,1.8166288802705748,10.623789452282299,1.1847780406772588
25.737721589536648,1.8280442801424641,10.4051402326606,1.1765409880841637
25.87474318562824,1.8214721008746448,10.209637219087208,1.1573353818443863
26.017722378320943,1.844310897547796,10.013111860463425,1.1575435262930074
26.144098234859772,1.8266565455377455,9.835819112698065,1.132684295225083
26.27053730211241,1.8401249204465173,9.642441262245661,1.127695056608331
26.408549296143804,1.8319042270492438,9.463587069965541,1.109059465242123
26.534640536906075,1.8352398271352912,9.288618293367103,1.0980391288287652
26.651618779245098,1.8631333635074439,9.117923080751641,1.1018896174552266
26.798245542052914,1.8558391001110934,8.954796523940617,1.084836197494951
26.91196499015158,1.8578489933121973,8.805251925613538,1.073860329490127
27.05125995990469,1.8578252819068655,8.66308607730081,1.0623537545812818
27.172139718029243,1.869978352221699,8.522680157552548,1.0581236812881247
27.298122874818425,1.8728713401511574,8.390051578756282,1.0488458184940648
27.4182406040051,1.872031447353646,8.271607335209998,1.0380827403133523
27.54008895510257,1.8980443048186295,8.159594375781422,1.0427947506909627
27.651542397364075,1.8880491421948489,8.048496205229855,1.0279696056270455
27.77260377106105,1.8778867119734997,7.947481586386116,1.0135586293520242
27.872597360377835,1.8845449468278532,7.846595334723908,1.008675699796305
28.022606195883508,1.903023584463317,7.759273805866381,1.0101427898584374
28.13029251475996,1.8983103351941037,7.670733322303233,0.9995224964662598
28.23745691469936,1.9216095953954238,7.601603117194523,1.0045479137586322
28.376444723340143,1.9220148117337799,7.529830026031124,0.9978231961284938
28.492829666357114,1.9140189986158183,7.474824484758121,0.9871477587597981
28.620489231092524,1.9208322211126898,7.425532378902147,0.9849673438051145
28.7354423403055,1.9318403080067597,7.385321859974446,0.9853892250888358
28.83985008171642,1.9333644422913039,7.352038100572672,0.9816467710067297
28.966473570408358,1.9355894006548047,7.32347370374566,0.9786728664870068
