$D^a [mM]$,$D^a [mM]$,$I_{islet}^a\ [pg/islet]$,$I_{islet}^a\ [pg/islet]$
0.5187522242267163,0.13661825529728602,3.037170100099709,0.27552434437233453
0.5681929858174607,0.1564093297084116,4.0725925671516165,0.37144048658570217
0.6391148736464094,0.1667307248947434,5.103143990693327,0.4414218573206165
0.7280351107903028,0.17711340917668222,6.1190123016614075,0.49740399927616274
0.8289694612742697,0.18857744875317847,7.131844188834951,0.545215132438008
0.9419499611019757,0.20133058056644879,8.122262540496324,0.5892670200457591
1.0634681393378327,0.21388065995081548,9.102021188029765,0.6273601267001918
1.1942910073773172,0.22841130599881856,10.069994229259702,0.6675951203132416
1.3318224028120782,0.2418573132064097,11.009872944389059,0.7016789579116491
1.47635270716341,0.25580283586427477,11.930449184901002,0.7348861530114915
1.6280106612555325,0.2692052804684461,12.839015172051363,0.764688458996627
1.7834985060207054,0.2820910379976485,13.720138831066562,0.7916331183186998
1.9442426187215938,0.29540470683163755,14.588752748609497,0.8188179685289824
2.109673150945185,0.3080263891789373,15.418212378332823,0.8430216032781268
2.278891830521661,0.32273985164256125,16.23560510890938,0.8719340462759173
2.453613552552617,0.334161365266121,17.04430573485119,0.8912656472517233
2.632657555342442,0.34566015196696465,17.821273378247877,0.9102195385590298
2.8121330949627876,0.3576957988779188,18.578047765133178,0.930088697550345
2.995299136850513,0.37120848195654704,19.298466370643066,0.953374321511752
3.1820646549510587,0.3815209407338839,20.007892620621327,0.967705926498854
3.3727843922226883,0.39490609536598353,20.678089297551175,0.9893221176507936
3.56054252455807,0.4036452208915863,21.34287664277308,0.9989716522685609
3.7519733923152496,0.4158100497641607,21.991579078487614,1.0174317066419154
3.945352407091462,0.42855206165903675,22.59617074327474,1.0367496931469784
4.1385753209432385,0.4411119263033617,23.214536312443908,1.0553340234589474
4.337274495930635,0.4500360076673557,23.78032973900758,1.0649528803131463
4.537537499848083,0.460632838940694,24.320869254449388,1.0777881714306434
4.743177399299828,0.4721606988058699,24.84352882612082,1.092203297230209
4.947860139076507,0.47999811672323456,25.360036050163462,1.0978472723991601
5.149893921170943,0.488221694620331,25.85352612826016,1.104708105628799
5.36301375659169,0.5007327062141229,26.284316678389025,1.1206061183305078
5.573134025952423,0.5126526933392187,26.693544985128998,1.1339366127784944
5.77604133429451,0.5207585864414228,27.08772861160228,1.1390242104933386
5.98904922752295,0.52865333365692,27.487101321672917,1.1439745366464622
6.200136283842494,0.5384656762423454,27.837226742797036,1.1526025431737705
6.41182667401084,0.5503280772994658,28.16841744549054,1.1652122415373705
6.623820987455466,0.5599661003795383,28.44859759540794,1.1725436087540788
6.837717028842447,0.5669134900457415,28.747964579068594,1.1740383756468018
7.062471822519917,0.5784662875049172,29.040320814673336,1.1850106220313976
7.278214963957462,0.5863842416617927,29.300970575105374,1.1882061194037614
7.496846735923608,0.5920885644374078,29.527330828354675,1.1869064870214465
7.704923601593478,0.6014287557559979,29.73346801726828,1.1929013368232826
7.921927901917549,0.615982499420553,29.93584978810093,1.2091593587964062
8.137126655520769,0.6194025394963634,30.099716111624254,1.203010803268221
8.354777397321064,0.6290229767389144,30.262961869590487,1.2088765101066736
8.577165314066677,0.6379858048955934,30.401914621807148,1.2131081205194343
8.799399600801383,0.6491325923018862,30.50795563970034,1.2209239428029284
9.023859724273425,0.6549058998067486,30.61339296597105,1.2182998738162256
9.236478018961533,0.6663568362564927,30.69743606895037,1.2264941680536992
9.457709807701994,0.673432993037317,30.748924952785337,1.2264158687690037
9.682567959744695,0.6800375704865136,30.797207743686858,1.2250060456173586
9.906147985882969,0.686072521209376,30.81589444165607,1.22233001116107
10.128638906538189,0.6899214082636045,30.85090540151819,1.2158564147255353
10.346715083898797,0.7010893338142717,30.852447988316307,1.2225490300054287
10.563787347746489,0.7070032174720924,30.848589939960817,1.2198825454093971
10.784688785197007,0.7182165833906947,30.83281032130372,1.22626571283732
11.005267105562213,0.7201268733388466,30.768403557442618,1.216275575964752
11.21699154199051,0.7313313281713667,30.70543097935891,1.2218680169241454
11.440242365997749,0.7365798598004373,30.680012950120755,1.2177544871044927
11.666883501041882,0.7465311817786484,30.586037083699182,1.2210926619234075
11.872241710186518,0.7524238434517383,30.500089343569556,1.217494180025816
12.092523881867569,0.7632256326521527,30.369113168789553,1.2218761967751983
12.31885755275454,0.7680276011200602,30.248225896884055,1.2158193244161732
12.535355990821088,0.7715320649526108,30.078502213715694,1.2075555140870045
12.761763078146892,0.7847594905437668,29.934277938351325,1.214343184259464
12.978512493658487,0.7916653453333448,29.759244512911117,1.211155394249294
13.193488050516526,0.7917275860940797,29.613754980362295,1.1978619742213215
13.415197650006641,0.8000185911154243,29.471056490027866,1.1975146918201496
13.641408327023937,0.8052455981973939,29.287647753295705,1.1920934167214405
13.865910606872605,0.814594949929348,29.09044792848744,1.1922511302112149
14.070008079469519,0.8243254152495371,28.869854298550102,1.1928474954889792
14.288994903425582,0.8277842375218338,28.63431907607595,1.184205642247715
14.499838137819822,0.8309559169962478,28.38431506892724,1.174873348205946
14.72974131665791,0.8450634486172546,28.125019354401736,1.180690009655266
14.93426030451842,0.845613988694607,27.864718799269255,1.1672287478258305
15.156437667629982,0.8551751862857904,27.63159804029576,1.1668167141577255
15.363820205552715,0.8595878643353033,27.381374815815484,1.159409615539939
15.567353092165092,0.8625272863475827,27.11449133495098,1.1501952415427832
15.80366782842117,0.8726969381182123,26.856436158502632,1.15014877944921
16.013991744046972,0.8759088993109013,26.553632722552273,1.1402928226209317
16.22091718222436,0.8825569460245193,26.245447011485414,1.134991015965441
16.407765138156627,0.8895253341027927,25.963298452659366,1.130506546208033
16.621816387487314,0.8931496048120174,25.669536159306855,1.1219741483462493
16.839582153835014,0.8986803925723396,25.340832901929417,1.115031574296255
17.06047633657191,0.9076742375928813,25.01701171531409,1.1118492763241656
17.269861071720747,0.9158848765043315,24.71254008630877,1.1077555777937964
17.485789774844037,0.9183634418164305,24.427462054725645,1.0972692294649855
17.69322702775682,0.9180459690281607,24.10245764640445,1.083532993175695
17.8838130303244,0.9299959133392988,23.783748096745686,1.08427186573272
18.076188007084713,0.9307130384333162,23.438590589427776,1.0717877270399183
18.274518561529582,0.9412018874251669,23.120380105213975,1.0704752177947356
18.4706467929755,0.9413144453249559,22.77518520878545,1.0572260506010889
18.670804099915102,0.9456122215769037,22.425540005433202,1.0484477461564796
18.850621980834795,0.9539738758298549,22.111692500176773,1.044510208947374
19.049763571333447,0.957072729836516,21.803538244253968,1.0352407922185365
19.227620245961447,0.9625772487490325,21.481024964646384,1.028622464684087
19.41968203839098,0.963404238307506,21.179186213878406,1.0171310635750157
19.610239048665818,0.9731481178974107,20.835643204555467,1.0147841624168992
19.807313782161746,0.9810836876848117,20.499926709345154,1.0098248991117702
19.992416279176386,0.9794700024369697,20.173213969675434,0.995191905475822
20.190468115601117,0.9921352745518538,19.846177775372304,0.9952209568645487
20.38379440949872,0.9907432421667516,19.500010938446053,0.9806858017697543
20.562049240591282,0.9937154956061157,19.170359441315057,0.9707327142595338
20.735953022383487,1.003585711440398,18.85453489436194,0.9679277350148464
20.9208516728814,0.9987602013669389,18.51067843921648,0.9507788995330898
21.117365329837718,1.010345927344549,18.17744622576097,0.9489199887953162
21.314824809879408,1.0100331176913062,17.848696031636997,0.9356509185207305
21.518642209107497,1.0147051406895211,17.51556041789733,0.9269835542180803
21.668449251624608,1.0165717663303595,17.17248928803882,0.9159487629237363
21.82432041773758,1.0264638837207216,16.854045053891625,0.9127273053367825
22.025019101174465,1.0289432459133112,16.530073418733966,0.9026270647059558
22.181728985588688,1.0329002634984326,16.217945201080273,0.8937917116976964
22.36128718371568,1.0408651075587458,15.898057578013116,0.8886030063824186
22.538848683014496,1.044814204480303,15.585407268881095,0.8796690759014758
22.69329458189546,1.0437642166077918,15.282620478013513,0.8668912059494315
22.855055364992854,1.0472725837128158,14.967753292427126,0.8581219378075149
23.019396231010223,1.0488471362113974,14.679868883452748,0.8477634299170488
23.213484420418542,1.0568356675408894,14.394422022989673,0.8426956785578921
23.370772731679484,1.069061641188879,14.091823390384492,0.8406698475824687
23.53869894745405,1.0653586501399877,13.80114612083908,0.8260612244861765
23.701928341472648,1.0667981115699627,13.506828629507357,0.8156205306280638
23.848598419303595,1.071585297143975,13.217754394835255,0.8078739214650763
24.01844694682703,1.0783834072253131,12.950928777967851,0.8018040046255147
24.165086196653565,1.0796832421200342,12.685101031499324,0.7918836894236504
24.329699255603398,1.0824115265095537,12.41386990607496,0.7830615871717529
24.48360890645215,1.0871885816631508,12.159979899455543,0.7757356582861057
24.620702414765564,1.0876428458240541,11.914242447367561,0.7657924168354969
24.76809806472607,1.092234008571223,11.66477511228815,0.7588810807560614
24.91293910146981,1.109700012579081,11.40978054776012,0.7606033059006828
25.06550135766845,1.1037363483090372,11.170913087316066,0.7460730628892291
25.204820377431542,1.1025554129823585,10.936314978109442,0.7352723032099099
25.35540548912797,1.1099509324711112,10.70806381509621,0.730348897339055
25.48973654570561,1.1088129943646163,10.487247078534233,0.7199350236255478
25.64265862107635,1.1152656667004437,10.272182995268363,0.7146300092941286
25.769822994521885,1.1199489773173772,10.068268907429136,0.7083698608189949
25.903269903203913,1.1148508299895983,9.868539567592048,0.6962733092900115
26.03713648326361,1.117868306548541,9.665465007170951,0.689338622144522
26.15140764516412,1.116955825134696,9.46866144021522,0.6801033989523348
26.280281576543633,1.121413855250447,9.269759690324225,0.674169440365927
26.418738078370897,1.127175736635398,9.096696314927968,0.6691582518446526
26.544859529450893,1.1323151828429758,8.91776093816218,0.664036421740792
26.64651581746065,1.1342499706726932,8.75203506719669,0.6572859837787096
26.780865553950047,1.1425523882550777,8.591374743772453,0.6545234863332242
26.918374863775867,1.1392854427784045,8.433888988198087,0.6449834359710587
27.03914152336391,1.1414369089166927,8.288297447125634,0.6388616048499467
27.15913189439281,1.141453647677202,8.150264515870056,0.6319708805973617
27.289573670881648,1.1498369010526006,8.015248157202706,0.6298395717858489
27.39409545976989,1.1428715625847121,7.884649032876938,0.6194810694197606
27.53181146125468,1.1554118573371852,7.75857027505901,0.6198358876733888
27.65099868339321,1.1563650635263607,7.6410031696469485,0.6140041751916347
27.807336063882968,1.1540833446915424,7.533231309730206,0.6067596772292139
27.934068730400174,1.1610342081367466,7.432484254965368,0.6046260924411726
28.10317689250004,1.1619096828895648,7.339040232508152,0.5995240281144849
28.223143073892587,1.1631079957880368,7.255049767619926,0.5949057369764222
28.35027937645246,1.1638793597020687,7.178837119827888,0.590615031522757
28.45455802393508,1.1697002969727341,7.108613096017885,0.5892607261807487
28.55966303995195,1.1767129008943924,7.052196484961563,0.5889470145652291
28.700616119649656,1.1777831236531728,6.993627676006411,0.5857775147168
28.8210544190038,1.1892241851199683,6.954068278150801,0.5879843744855373
28.920466983479816,1.1867954051456067,6.920853662566599,0.5839700132580385
