$D^a [mM]$,$D^a [mM]$,$I_{islet}^a\ [pg/islet]$,$I_{islet}^a\ [pg/islet]$
0.5187693995678356,0.21054237023989777,3.038678647679364,0.42183007078780516
0.568361266020515,0.2521273087114318,4.0744118266048615,0.5968737625764057
0.639485759717262,0.27137759376904874,5.1011042593697535,0.7176492926196351
0.7270638561509046,0.2895224027161848,6.120820580831202,0.8128382759527895
0.8286406849411745,0.31064101654590487,7.136036100713915,0.8984262846881105
0.9407198621434605,0.3293044364428248,8.125893556504426,0.9644334348175164
1.062383973552095,0.35229059992847284,9.104204205416954,1.0341156385031158
1.1928588030715026,0.3723991398999049,10.072717545123895,1.089153772880502
1.3300090523157262,0.394960753221154,11.015744635481827,1.1468164032133747
1.4748353651642578,0.41784211646185176,11.950450245388193,1.2016510834709706
1.6257631015460694,0.43812395789828884,12.860841157934376,1.2462075298383655
1.7824056490739217,0.4576541290018525,13.736687258415152,1.2859316848511697
1.9431658158198848,0.47987756334953446,14.581289084217754,1.3309636574327302
2.110259812140328,0.5026144272475247,15.42975060843061,1.3758033172584057
2.2818290099607776,0.5219995123584731,16.236481560804556,1.4099915624516672
2.4532942425935844,0.5439124344801035,17.030946087040732,1.450158808820484
2.6319087230299765,0.5654150763918477,17.80145003788675,1.4884328685348236
2.8123232009139976,0.5886536097997177,18.556675572325148,1.5298670551266103
2.9945446159148568,0.6047998571599581,19.282099183895248,1.5524240137565548
3.1823297167059947,0.6225851745239563,19.99348530186706,1.5785102882550697
3.369205514366982,0.639557168254415,20.681476411040286,1.602116338113136
3.559646286346359,0.6653923894145488,21.366617863173897,1.6477680023165084
3.7522391044109167,0.6789776349811136,21.99742839593926,1.6620997226467935
3.9501151704168915,0.6987312736008597,22.607801230806334,1.6903804297800478
4.146921815817314,0.7208908194912147,23.20287319109628,1.7235661431135505
4.346181802800347,0.7352962066269763,23.797135669743316,1.738321713979402
4.54976835211048,0.7530968251058217,24.34927250977729,1.7607282889557025
4.755229983268467,0.7688034464735363,24.853901226929707,1.7768134818500914
4.964380277863331,0.7904435579775552,25.347736690430896,1.8055081774955113
5.172082374171691,0.7991718734922081,25.804562415082078,1.804115937195591
5.384755364236352,0.8174967422716948,26.285061398433086,1.8247686475728098
5.589664552515428,0.8411924860656173,26.697541583733376,1.8572404278585737
5.806543707448652,0.8513220398345742,27.108211146578515,1.8586579485716335
6.018455829814581,0.8640737692496334,27.469470101020782,1.8652652034497987
6.227162088873541,0.8831400468742735,27.856950194371173,1.8858982120590002
6.447399007108434,0.9011813992434411,28.19449678509413,1.9040372414783138
6.665058853887023,0.9156919377421477,28.505328860945692,1.9131766173948854
6.8760082302088845,0.9265689386957247,28.831731928163553,1.9153010725724418
7.084902921953459,0.9470633402527509,29.09009909102083,1.9377674477651503
7.3116861571512555,0.9629152901352358,29.380464517528004,1.9494364180910457
7.5299408969091415,0.9743721226714698,29.62402353066737,1.951613611557119
7.742315284949798,0.9913237318531616,29.818148185575073,1.9646600443724807
7.961058953692751,1.006221900545239,30.037997702480855,1.9733582750070129
8.176981628671696,1.0152313530012633,30.205737535355194,1.9703436503499903
8.395498878341753,1.0273952683165164,30.380971946024545,1.9731405213673117
8.616198589907434,1.0468377536830624,30.551932063588996,1.990030826710385
8.834839656732738,1.0647983159178773,30.693886697710422,2.0036055472789385
9.056157609889297,1.074836465153753,30.795526590554275,2.001475787555559
9.2690897571311,1.0821064570667491,30.85268546784416,1.993665420977561
9.481723900790646,1.088401427928954,30.95785861639232,1.9847377583326522
9.7034167477717,1.1086480581284228,30.98816039001623,2.001071440017554
9.916168833430826,1.1236733302313364,31.038009960787964,2.006851298324666
10.141676750052538,1.1359122885429025,31.07505453096512,2.0077278755718146
10.355713236024165,1.1427951517929156,31.08279245866749,1.9988333538431688
10.578302695453797,1.1571112371805603,31.067283609454577,2.002625560294118
10.792311655573247,1.1652911482436403,31.035881330882013,1.9953625798435726
11.014627752735791,1.1834887994675374,31.005027438792183,2.005153783262025
11.2438976892298,1.1931332703973252,30.926815139084052,1.99931692575688
11.462022986997535,1.2068505824212652,30.83892426642297,1.999636532365222
11.671575854680208,1.216379298530519,30.760693880870534,1.9937453936402125
11.890696066067509,1.2311162697338272,30.647682231178504,1.9964389080279825
12.106547261118008,1.2433681304364224,30.50805517737471,1.9940075342123305
12.329107835292588,1.2575438028332349,30.38289154117924,1.9942310808340311
12.544958831544644,1.2697707949349057,30.265723350218913,1.991671935336394
12.760518609778845,1.2750212225428164,30.13413088001498,1.9785347824941508
12.982026134116738,1.286368950053243,29.952365329977336,1.9742756629223226
13.2027454269943,1.300792122887056,29.798287642004965,1.9740324306724124
13.42022942364119,1.313897190321156,29.674521074423275,1.9724926396490574
13.634920642498608,1.3182558543385607,29.479983461411287,1.957987536581575
13.839616211939104,1.3325193814888965,29.284424851448936,1.9576187618690548
14.05229524921898,1.3423127987123693,29.095144542797755,1.9507304101658316
14.272556091932998,1.3443858105829882,28.875883802270696,1.9320521530007329
14.472637349305405,1.3526542135421762,28.64980043173416,1.9222103839006475
14.67207472260705,1.3689120225093514,28.41763296351646,1.924219982102948
14.888475970055758,1.383760101214287,28.16131790073207,1.9233093248234665
15.080575837592185,1.3966927724450127,27.89153552468011,1.918959938056949
15.292917189176086,1.3963699958148117,27.637574776246524,1.8967316315465368
15.50994152201689,1.4112792409455828,27.35229179153062,1.8946168460026442
15.726040966681483,1.4130467678153595,27.093589253429684,1.8743543194481167
15.93177130235802,1.4300100047571866,26.831142288539397,1.8750578266253657
16.133235664698415,1.4323889873805655,26.568167690446376,1.856957005563859
16.353312866808757,1.4406313285552974,26.27944066653228,1.8460993199831468
16.569365668964995,1.456977406641175,25.998982591328502,1.844763086899407
16.781998206529963,1.466700426665893,25.712559048188325,1.8350165458192704
16.980687410872218,1.4732251786976727,25.42950713594578,1.821681413099001
17.19405653415,1.4839512058198667,25.115914976387298,1.8133372330170476
17.407256999118836,1.4994840933464249,24.797636016439313,1.8098221781152455
17.61369128049417,1.4996288794152288,24.490817511550706,1.7876784634130978
17.807922225379578,1.514824285273097,24.17690521333772,1.784165268801446
18.000357994208173,1.5244589032157572,23.85662673599774,1.7741324776014156
18.20045203108153,1.5240599315322005,23.54050598908594,1.752295650699953
18.399303541831543,1.542677656162309,23.220928318292273,1.7522727632315949
18.598933172051254,1.5436858013135801,22.890678140189873,1.7317509851744328
18.790878911482974,1.5427826170106154,22.548733008004454,1.7091851298850635
18.984509582687178,1.5526166414967555,22.206404023923042,1.6984529531396764
19.17391491653967,1.5585888423005172,21.863358189906588,1.683327952288911
19.362996600577265,1.5653884104094842,21.542021924767717,1.6695509059701412
19.57477349657072,1.5880394786658087,21.196531981398977,1.6722243656977966
19.772677779060373,1.5891622910230576,20.881739406180614,1.6516623221484503
19.972736898557958,1.6028784684840653,20.543367447776347,1.6447111328293589
20.152855173979273,1.6132926976416393,20.2069074683229,1.6340551181768694
20.339916369030853,1.6202145113132136,19.875532918842428,1.6201203379801628
20.516244028966952,1.6250198039430688,19.549473498013057,1.6043229244893367
20.698184386425307,1.6291524597601028,19.22301568676674,1.5881102719479054
20.88671304663664,1.6364856767842395,18.856942676163936,1.5741937116127473
21.08262029834757,1.6417546230580347,18.526426923059763,1.5576995437930712
21.24603096637559,1.6514198673864944,18.18956113020241,1.5460790849069497
21.41918743647714,1.6526119485876931,17.872496887278857,1.5271894444363308
21.56515084407129,1.6723211279830068,17.551207656689158,1.525933934474582
21.739542197470666,1.6828037228910997,17.238636557534974,1.5160559013655128
21.915764644491762,1.6899413951154851,16.930493372021747,1.5028740797743705
22.083721708707365,1.6853981285164341,16.59577688604053,1.478913372172325
22.258072363938812,1.6876698393363931,16.279790128235394,1.4608963427635333
22.426723789576645,1.6809487226223023,15.987369499958517,1.4358929274378638
22.58188954481552,1.6970763957083688,15.662372344166064,1.4307127627241463
22.74607150516421,1.6998711329610838,15.372427270570752,1.4140232204248444
22.90358488426417,1.706398798550151,15.079023442269865,1.4010635164099055
23.07566276022155,1.7317062929836642,14.773040045025995,1.4029097425288928
23.215017457051186,1.7259753385972603,14.496078396878938,1.3796976842954576
23.394001979978547,1.7362070508133336,14.212845204033133,1.3699166508112792
23.553770963400094,1.733605922095999,13.92273855393881,1.3493634588356636
23.7336866492807,1.7473056747439673,13.636845368830604,1.341327424366123
23.900650017433918,1.7564719880759863,13.369068557436169,1.3298461709481
24.03955083234107,1.7511166062345673,13.098953113365425,1.3081448132381366
24.202300797755218,1.7574957880647786,12.816356097075218,1.2952293460447888
24.347834446976687,1.767637504095903,12.559231719940648,1.284981680588869
24.501191109978897,1.774186495137723,12.298249292176246,1.272577268049251
24.692307633817233,1.785056933803669,12.043709350873158,1.262721660949304
24.849646232099374,1.7923045372642663,11.818749839944704,1.2507385474360384
24.989790234707762,1.7940480251525304,11.586246404692218,1.236034296445549
25.13360390131866,1.796802076976245,11.361288357717992,1.2223012646568996
25.281851411221602,1.8012068346950099,11.13005901911739,1.2095874273297753
25.414132063996064,1.808780468110887,10.904267585338111,1.1990263827552528
25.562577483747397,1.8127218511737544,10.699132215297524,1.1864286192212807
25.72074212335596,1.823928558710582,10.49037877608005,1.1787507511897146
25.863526068382512,1.8320025411062897,10.297706619830223,1.1692566966458904
25.988655749702094,1.8304277529436301,10.092205353079361,1.1539427863387197
26.157445346972086,1.8221391963770166,9.909652550000628,1.1345513772494225
26.27558029883912,1.8404194811327719,9.725085329707763,1.132243360732963
26.412265011053567,1.8403368675037373,9.562524348124631,1.119244685632262
26.501562309953854,1.8435501425329486,9.38484367933523,1.108820017960638
26.658542728242296,1.8442569523400478,9.221340809544754,1.096720888576523
26.810275542368416,1.8476507936996494,9.066664451107675,1.086188979290293
26.929673585228038,1.8616172140766474,8.921728534824648,1.0825355334586237
27.057864739259028,1.8652897092754064,8.77527334524955,1.0733268744843916
27.20353917979308,1.869567180129045,8.63650466657873,1.0643575172881632
27.311606541133017,1.8684610922876403,8.510650722899047,1.0530726847783234
27.422843819552025,1.8756596902219465,8.391001726049252,1.0472619087077895
27.545598834259042,1.8866770160513788,8.271335161353504,1.043665597145175
27.668448706399072,1.8960175264818828,8.159479409990192,1.0392176619736473
27.806109224591008,1.8917874621331503,8.060724160098355,1.0276734548369422
27.938264520582923,1.8948330110434919,7.963073901787131,1.0205836513368143
28.054908960226307,1.8945361236124463,7.873881398892996,1.012067502105315
28.176272098896938,1.902864430660424,7.779106788116411,1.0084001155471451
28.29668538916305,1.9127641512168096,7.695476211759534,1.0056778003543596
28.39424047789669,1.9058855123052763,7.633629023527007,0.995186414873891
28.510429445655515,1.9160567041974474,7.579258834848915,0.9946150614736874
28.640081707094172,1.918122532810317,7.529299673596177,0.9900583750601233
28.758979502397878,1.9234354149758326,7.491278637172572,0.9876480198053934
28.859534000065203,1.9299478225970168,7.454648024118335,0.9864968383916153
