$D^a [mM]$,$D^a [mM]$,$I_{islet}^a\ [pg/islet]$,$I_{islet}^a\ [pg/islet]$
0.5186521435440159,0.23510515140512928,3.038367543549619,0.4707653238611159
0.5681077853638432,0.2820458943136552,4.076041762925893,0.6677401220873308
0.6391448742679068,0.3040246468919208,5.104412610056745,0.804193852343803
0.7267577479935026,0.32432864757670726,6.123996203008161,0.9109202088761893
0.827854513647724,0.34497090076248205,7.134972955997204,0.9981710707579436
0.9397966558263292,0.3674260040927644,8.131234955943249,1.0766849453323861
1.0609923351526889,0.3931062384044966,9.10743087966714,1.1548400103711163
1.1894146933566216,0.4151278309552539,10.068592745592397,1.2153419027803436
1.328020316492404,0.4418871379874523,11.009028151784335,1.2842214947449349
1.4712892266888289,0.46684613000255576,11.934571925559819,1.343357748276969
1.6220045171107822,0.4892097123126162,12.836070507504283,1.3920259554772312
1.778940495622617,0.5124658713959002,13.714290635295226,1.4402946717518952
1.9401556050290958,0.5375976319791265,14.580290732815026,1.4916419422140743
2.1061573666290747,0.5603597589568863,15.425115132789593,1.5349158045718567
2.273698313990582,0.5848147757272588,16.24390561160518,1.5817762197939165
2.444566147546457,0.607986549081636,17.032481797528078,1.6239730244752444
2.6236472613828066,0.630780851966329,17.81779089791872,1.663590958065718
2.8054357584401397,0.6507965382322539,18.56425952172521,1.6943477203812982
2.991023163242476,0.6739546425188587,19.272943042894084,1.7318934834255921
3.1778326990548336,0.6926508827754045,19.977416004650948,1.7569274184660786
3.366762356797704,0.7143192868218944,20.648027649189075,1.7895119349610888
3.5569518646774747,0.7427723618137589,21.312547185432276,1.8384654499086432
3.7488711519113065,0.7586449103710659,21.96935243153827,1.8560222003528681
3.945224276590275,0.7827839227893573,22.593382993231803,1.8935260631144506
4.145334872046787,0.7994634438225346,23.171623244760916,1.9112563932507962
4.345345482578803,0.8166773841521193,23.736912209571848,1.929386690912693
4.548675626669535,0.8372154777873939,24.28864179502491,1.9552914440655689
4.753404713343691,0.8624657041281684,24.829995025816107,1.991670788267513
4.958098731694693,0.8769876313376065,25.313083560241992,2.002581678526201
5.162350581476603,0.8945200381604685,25.79505683520601,2.019964791939654
5.364256525163604,0.9153129214262085,26.24893990843055,2.0448806175907226
5.578950719519714,0.9353094701400687,26.695135176897086,2.0670951941752302
5.785604208603332,0.946852538332739,27.109621288230525,2.0699518536316552
5.995055162310219,0.9654603952611032,27.456736501317106,2.0877693220450757
6.203571995833955,0.9871093991363351,27.805448394557242,2.1110209921012237
6.416848058506595,0.999812470812551,28.1696792283566,2.1154063126233837
6.628070960669463,1.0211895955668953,28.508063846028694,2.1383893493334107
6.848553155192174,1.0399153987224883,28.798108166738125,2.1544283967342794
7.064957061429782,1.0531461717475925,29.09592983603881,2.1581466681329524
7.27661357175668,1.0700888323073388,29.373448987858975,2.1704399726724004
7.491470049638545,1.0885927428466817,29.647769682027516,2.185842851982263
7.709314050124872,1.1110811403653142,29.864552688813674,2.2083934766254725
7.922865565511854,1.118378516422691,30.08304118792276,2.1998304603177012
8.136820932795379,1.1325137410011528,30.267777952675974,2.205085479866506
8.353196144162784,1.1468935234978577,30.41478624942396,2.2099470527768563
8.577941083892215,1.1666913853383871,30.542321953363157,2.2239416617480146
8.796000106554176,1.1790707843483428,30.672592386295175,2.2231812203634727
9.022114753417894,1.1978897675630953,30.81276122926556,2.2351714365115383
9.239518613843444,1.2051908128102002,30.914964234431277,2.225512491787756
9.448762643105932,1.2240765081206686,30.977511849570053,2.2374774792313183
9.677135292933858,1.2435514971344093,31.064633911436598,2.2497084868519757
9.893340532303233,1.257082354040707,31.091852839901094,2.2502554344747323
10.105446387886303,1.2623566102377901,31.146829939338545,2.2365494354086426
10.333966207342533,1.2801039372349992,31.162923215782424,2.2449562979179083
10.555176462978741,1.2905950511310071,31.15016910788444,2.239007821242196
10.770196280031348,1.3036884770622055,31.12897437187052,2.2378274412843173
10.989079865395581,1.3147177921755728,31.0849683954887,2.23300736282338
11.220627424464569,1.3308110479307529,31.016307331556728,2.23557067981907
11.445787091428292,1.345358436867487,30.92610088948163,2.23434479599746
11.651484200074131,1.3565248070158111,30.89326904908558,2.2290399784710364
11.877111871955075,1.3761247048376708,30.792486906422177,2.238068653858118
12.09046965662549,1.3851037288003198,30.698637228087797,2.2285100443918306
12.309943558381057,1.407901498681183,30.607340715189466,2.2415571939442818
12.52040204482483,1.4106751608116626,30.474333105260865,2.2222955695880597
12.744432112222954,1.4238957884312446,30.3396694568152,2.2190338484071814
12.9665740083391,1.4345646646600714,30.215002553545578,2.2114166358161067
13.186630727119942,1.446593715995211,30.008119754530448,2.20522240185638
13.405365625893015,1.4630151084055911,29.846535580504757,2.2050672058993976
13.622453730813922,1.47984913551085,29.64474471808542,2.2055988967152613
13.853269789065369,1.4766988230704556,29.4390527015592,2.1754975040019304
14.061999857889102,1.4917199879230685,29.219046459654397,2.1724763456464014
14.286984379716474,1.5038098145500394,29.026244136831906,2.1654471843300196
14.505375323709623,1.5147324342576598,28.79854972930032,2.1565711526584455
14.729972618255784,1.5373230819163246,28.556202539120882,2.1634454767674383
14.950583627858164,1.5386719427532765,28.295779772107686,2.139544144374492
15.168663673770972,1.548069618081922,28.05037554959364,2.1273352771050567
15.379858529387676,1.5593958981536364,27.79127960235844,2.1181864206399483
15.596240085016955,1.5750985466705127,27.505662269189607,2.1144815757715123
15.791767237340466,1.5861951735064477,27.20318594314888,2.104062312874882
16.005317153957524,1.591343262181231,26.950644934487247,2.086461814175412
16.219408448953274,1.6087553391908918,26.659838607659758,2.084825549378896
16.42317769585372,1.6226908095907913,26.332985621283115,2.077518758976904
16.61038708717604,1.6265383551655908,26.04320759324978,2.0577509049150295
16.809781931171077,1.6426713630116683,25.731704725826795,2.0542219432673123
17.008349843772773,1.652713757427927,25.416957158534533,2.042223083375986
17.211641174348546,1.6586296109395784,25.108999797013173,2.0250574237309826
17.42018088904751,1.6706519929612242,24.779109057028773,2.0149140632856772
17.63574262555333,1.6731859116789765,24.449685677020376,1.9925330763458666
17.845875181848488,1.6860320809089189,24.107513760192795,1.9822414337512873
18.025871286636157,1.6937391554800096,23.769151419452424,1.9663335658528387
18.21864963309652,1.6978253422878946,23.43598404395005,1.9470133544118071
18.40835083275226,1.713553881230356,23.104519032690863,1.9410326393822896
18.61450664967826,1.7256324156283107,22.761083686503497,1.9302303670603629
18.80035677213536,1.726624739040053,22.45284946909799,1.9073495376900929
18.99507305152023,1.744473890149837,22.103388463302828,1.9034809333823697
19.1933133249073,1.7547975088726133,21.771257481331272,1.8903861638928043
19.380910095999326,1.7663258790815783,21.43530518429609,1.8787062937932175
19.5652641356583,1.7749083613132244,21.076388979427126,1.8637391403665764
19.7679365071057,1.7869598738948347,20.73374514833124,1.8517928253453588
19.954200946392067,1.7870062653252239,20.403066098681077,1.8277273025985654
20.159869468458492,1.7974508562931908,20.074051159040174,1.8147601389443975
20.346503958309,1.7974789365069896,19.74182664428806,1.7911569393627391
20.556403352238615,1.8236512647290537,19.397215903900378,1.7932713776560305
20.71327731866573,1.8216740091424808,19.047623600169175,1.7672979292992301
20.90026502939839,1.826414883468633,18.72751874876861,1.7490392718735257
21.09743015410251,1.840573279870901,18.410284223521735,1.7397573873304153
21.28439667577435,1.8406982859426155,18.070696782915466,1.7166955297372637
21.474183344100677,1.865075221994391,17.744767749024344,1.716072295262393
21.647950312295567,1.8674495143007723,17.41253964613135,1.6950259970099255
21.834467792013793,1.8810232668627995,17.09644556804128,1.6845946171728803
22.00713888068929,1.883781942713502,16.779042965787273,1.6645825581321863
22.182613656296386,1.8915199913882679,16.451348795484844,1.6489547959500956
22.35665092193516,1.8961629248086977,16.117969402305008,1.6301828451027032
22.51356975094945,1.9071858928160905,15.811051253152984,1.617399451538485
22.695800712360967,1.9087014139579195,15.498961596174635,1.596901096488492
22.87607154207759,1.9224689053757464,15.204916686113672,1.586517126748441
23.04030158977229,1.9186909235968406,14.910791103374375,1.5621697067640925
23.19399718184829,1.9391264828344232,14.608659800826263,1.5578292359778159
23.37448545269522,1.9369505754591547,14.323032401214453,1.5349308094390484
23.5406142294813,1.9530804258572896,14.018809973806487,1.52638966414543
23.699892622296552,1.9496858506023498,13.731760582649517,1.5024865189912902
23.868428468740014,1.9586150932267472,13.460411573890052,1.4889474757394792
24.0020732259818,1.9525323785558588,13.182393307977971,1.4644870816194904
24.159526866499363,1.9727723007260527,12.908831648664162,1.4599793698726589
24.324091426836628,1.9707467220194135,12.660656007306155,1.4389189487575345
24.482843356520878,1.9831490497820468,12.40101647993916,1.4288253193323721
24.625430860466484,1.9928582123158243,12.139926041963134,1.4164960319750466
24.773809894391444,1.9918751716408771,11.895619239333033,1.3969478559346231
24.89316470583251,2.0106582185765625,11.658600923342602,1.3920901005618893
25.04689300937061,2.0070913606266574,11.422137675376671,1.3718166754098065
25.179571914280757,2.0224396436050105,11.187078071929964,1.3642830262280345
25.339213509831385,2.007491281378467,10.96364729661274,1.3364673912197322
25.49088334493193,2.0337772329392565,10.751767247311152,1.3365962461201375
25.634803187631626,2.038207182481131,10.54386155646553,1.3224949677753242
25.785022171208357,2.0399873175857226,10.337655432068166,1.3069678039249302
25.948373038377472,2.0485637924631863,10.1366723669989,1.2957698645476396
26.09537480859078,2.0572539551891813,9.949316781524127,1.2849688535796022
26.227216926906593,2.0495953452727913,9.771211859698544,1.2648819489368346
26.352698610595084,2.06714446705168,9.60290779058658,1.2612621852763324
26.469408529247538,2.0608440340979493,9.42068126792482,1.2431193788108257
26.609446237875755,2.073264587211648,9.249387911876651,1.2361155149779899
26.73214876933938,2.076721154280422,9.086434352267107,1.2238941465411484
26.89159263046124,2.0862553750407185,8.92805931529297,1.2154779891338368
27.023837543496317,2.08223975601901,8.783456825535524,1.1995493711626684
27.161448604061057,2.0885506688270077,8.639140708600431,1.1902890026011252
27.296442896677902,2.0939569285878603,8.507641415089479,1.180806411030456
27.44159290702874,2.095179620567617,8.39113690757377,1.1697508341379732
27.57711426312834,2.1048743396468184,8.282386370141744,1.164201141067127
27.69474257539225,2.115005889843457,8.168021500948642,1.159280551843882
27.828788661267428,2.1122109268776215,8.072343486443637,1.1476216934163148
27.93201771198319,2.110957526371653,7.988160844236732,1.1378713428758431
28.02430559363826,2.119152242501175,7.910687217052182,1.1343597704301336
28.13300870869374,2.118744252249508,7.835596207549793,1.1265966224834865
28.26206710045782,2.134345092625234,7.7605924497556265,1.1271465849796363
28.369520826123242,2.1352362451002436,7.690329060719082,1.1198850864328
28.4612086307661,2.14706793207589,7.628260785326491,1.119141622051591
28.55603448368992,2.143426407335434,7.581445374948413,1.1112908114541389
28.685393384319543,2.151675299059072,7.536844435488105,1.1099164215902653
28.779357898425264,2.159553076347983,7.501950285385192,1.1087240191162226
28.880607166831226,2.15499306085271,7.463816675468633,1.1017188309349306
