$D^a [mM]$,$D^a [mM]$,$I_{islet}^a\ [pg/islet]$,$I_{islet}^a\ [pg/islet]$
0.5186231147295738,0.2454849805747142,3.03849907286167,0.4914673953421726
0.5681482944847291,0.29633951066081715,4.073379827990879,0.7018043485957205
0.6390495571205512,0.3173881608544791,5.101815556984307,0.8397789960123118
0.7264863676644291,0.33976683842227123,6.121884274649185,0.9542769613400753
0.8281934689120383,0.3636032415495699,7.1332221809831315,1.0520355307753493
0.9408267687625755,0.3866805045028893,8.119156393173077,1.1323534014158034
1.0626764818020664,0.4113250817426168,9.091530415060426,1.206701478778819
1.1933286346597536,0.43636194011352514,10.049315402477308,1.274938734039505
1.331208059188694,0.4637525886468793,10.98822017895856,1.3445372965047244
1.4773041528043493,0.49199907938736204,11.917719881422412,1.4122638077168828
1.6277382119516441,0.5134941502780992,12.828460234497893,1.4574735352119599
1.783180386148437,0.5379303028395219,13.716259534221217,1.5091251669266734
1.9436787072341546,0.5647402460413241,14.56952706133145,1.5649898227836347
2.11005976764768,0.590156491931135,15.410979000284373,1.614411383910559
2.279452397322935,0.6157764080520439,16.226461297930637,1.6628984612977262
2.4524758789789263,0.63750062570389,17.013377563528987,1.6994394717747177
2.6300147617786798,0.6626153132246427,17.790973379316164,1.7439548049431415
2.8095188913109554,0.6870445948514934,18.54108171087856,1.7856439038666152
2.994571184458946,0.7103032152632925,19.27121740407412,1.8231409647830472
3.1802583123010475,0.7332705760039158,19.980528663998776,1.8589631335911352
3.3679440342322824,0.7584193413676441,20.66014429908481,1.8996760669242332
3.557928446202324,0.7772659852897524,21.303107451071334,1.9234171725091163
3.751170176657169,0.7979329918515654,21.93857290120426,1.951043347078918
3.9442196131331144,0.8184054910560343,22.565543154255813,1.9781747672499534
4.142826993812457,0.8452446950697113,23.171916217098794,2.020304174398905
4.346171271293366,0.8603739576395079,23.750728776982623,2.032950913616005
4.547041996564082,0.877965057885849,24.311650053125764,2.0512334044695124
4.754932195721263,0.9011177872222189,24.827284878836323,2.081611185001478
4.9608437299221295,0.9227304122193114,25.341232020344826,2.10718841347919
5.168486056735539,0.9462677472405948,25.83490802717074,2.1372564029089305
5.376519669456016,0.9624487014573527,26.278517834187806,2.1498665194620163
5.587807306197567,0.9806246756125558,26.68684402291177,2.1658238466907
5.793769573397114,0.9941925962945961,27.109197845270852,2.1715962942803086
6.012433186257271,1.0179774394528822,27.498805456392695,2.199786281607948
6.2293748470934585,1.031016365549197,27.858197519849515,2.202904340806576
6.44303277105328,1.0547931594194815,28.19912460961028,2.228958408991633
6.65688332328395,1.0732098758441504,28.502969501534174,2.243270554962082
6.862012792392115,1.0874587525489725,28.782781274199902,2.248827631503242
7.070837650113599,1.107479503650267,29.071868393265028,2.2669002747593834
7.29148834282081,1.1287660841649019,29.302474695442815,2.2861723712258937
7.51688551147655,1.142881347928447,29.542985403502087,2.2889287864387136
7.739199656083975,1.1580554272292642,29.745416365479212,2.293561651228426
7.965803079906134,1.1775371554438019,29.930271133759163,2.3061271638961527
8.191102674176259,1.1973021272636941,30.125599161410655,2.318970963579298
8.421591175544318,1.211259008451148,30.29387015021719,2.3205236713468476
8.64707710477119,1.2304001006590304,30.45870234553605,2.331830451049749
8.862585902411913,1.2492822947815467,30.5888204099254,2.3430781171430355
9.088460970171017,1.2634113456400005,30.66797764226931,2.3444361839149512
9.317717086248853,1.2700512440306018,30.745956045754994,2.3305428210824704
9.54887199877973,1.2919627893079189,30.804858533778123,2.3443853430582613
9.784282551802999,1.311011930954236,30.85207660105717,2.3521379011501193
9.993231724344968,1.315077766932651,30.898586276005247,2.3340355390081595
10.208456882574081,1.3263513273707375,30.926136441101587,2.3303613782479933
10.418767672339028,1.3458136871655122,30.946066239877723,2.3409553006414145
10.645875232277772,1.351212737115871,30.95206674742709,2.326381247957477
10.87068623167585,1.3779811477902209,30.91282252260961,2.3471763869867623
11.094101272823059,1.3919308074256576,30.86341041293229,2.344856390894073
11.31002475997732,1.4079030309834417,30.814425851997974,2.346462808079891
11.536491405569635,1.4296570993649216,30.71325798172833,2.356896399998669
11.754046160524961,1.4296949631876428,30.657257621533233,2.3310514044274138
11.970554396218,1.4484263827427304,30.553623516324272,2.3369091306970247
12.183960306343854,1.4671309867827853,30.450964942679995,2.34197307061984
12.396615266428167,1.4712702135003621,30.31619578202914,2.3235890701455335
12.627630658421525,1.4892876665073844,30.196844759158907,2.3263960166162883
12.851601936876534,1.5051102421693692,30.063626867609585,2.32518968750862
13.077341931887384,1.5145457949640138,29.906498298157945,2.3138256717643295
13.287978945435903,1.5201558545221765,29.74705834373966,2.2969010143158406
13.514164822566702,1.5404893039929755,29.57830222379721,2.3022686916357666
13.717510875089674,1.5510913973464695,29.362631045918512,2.292332609691588
13.934576969782862,1.5680618521327305,29.149526579192674,2.29150065918573
14.158363607109804,1.5770505858042008,28.9461559385288,2.2783235727387567
14.370489395461078,1.5945901451868278,28.719766298665153,2.277564442206792
14.595056709324384,1.6074984668570136,28.488796106358226,2.26965621270933
14.808514557259931,1.6148261059305407,28.258137854046357,2.2537864221751445
15.03108149848716,1.617938513846298,28.009726803417,2.2320604085864657
15.23803302011953,1.6360647098808039,27.763165330042906,2.231150328023419
15.4373438663323,1.656706851989313,27.509784955151915,2.234079700904316
15.652472957626317,1.6623266550673657,27.25600608600654,2.216447108122623
15.867565327633033,1.6558815745525672,26.997774991542638,2.182434853903676
16.08999218827575,1.677635959316787,26.71106418595679,2.1853021873764256
16.29697808252765,1.6902584030348662,26.438584324396484,2.175522548304495
16.50744975885622,1.6923822631439194,26.1483571605788,2.1528109133745956
16.70627563944989,1.7135042704375234,25.82819343878262,2.153843748866483
16.91663728558657,1.727227985014272,25.555738498139913,2.1453782065013365
17.11808599787336,1.735799176097359,25.217306544392468,2.130292422819116
17.334832321945903,1.7492845837749111,24.929559119844768,2.1206056292493836
17.54360952688568,1.7622999534583434,24.606203033432074,2.110415348112058
17.74982295695618,1.7698316809744963,24.303427447540912,2.0935143852344815
17.931722864669148,1.7743265422619212,23.977662708097935,2.0737614568120253
18.137009489567497,1.7922235248797778,23.633948037411397,2.0692448830491794
18.34322208048241,1.800375265877102,23.3099463503127,2.052369805490372
18.55459412820614,1.8108363724621688,22.990257832944764,2.038492256558042
18.756106839794306,1.8199271608432095,22.64751463831009,2.0227895573041472
18.976809199349958,1.825908987964705,22.32147550631931,2.003366161367037
19.176955292876514,1.8419767431327805,21.97787174845647,1.9948566448631195
19.376880737151556,1.8400708350008381,21.630425355270397,1.9668666714831873
19.578193430791682,1.860560697494318,21.303471029631805,1.9632322481870792
19.77118756254568,1.868971267652969,20.979360288360763,1.9470802856293756
19.96318389529733,1.8905743672196345,20.647209164158795,1.9447939147976172
20.135863989814037,1.8833856450108997,20.322776949075255,1.9130692369954936
20.327891181040066,1.893711786682536,19.96058185144361,1.8991245092327091
20.512552965009398,1.9065843701514893,19.600055503133753,1.8862794543449823
20.68939662916792,1.9106796350404398,19.26904364235542,1.8652970976432235
20.89671633206285,1.9281810384227192,18.92611267580624,1.8575707915218342
21.089350738975632,1.9335014859451223,18.61150795278368,1.8376805475649545
21.25856486489426,1.9487789887532416,18.2637790346381,1.8279190673890728
21.450065336494877,1.954369981276998,17.91458351649954,1.8082742272259478
21.631598695092915,1.957180407458147,17.576928180589434,1.7858402139049223
21.808442333388122,1.9662252142987782,17.26219237645223,1.7700683720746362
21.99805957559212,1.9797905291088584,16.934475074030185,1.7584551258867704
22.182411781608355,1.965931575364442,16.627828612063492,1.7224830362209764
22.344027998040154,1.9841996007372125,16.328874759803476,1.7159147423493735
22.522726193042015,1.9901875927687434,16.02054020074755,1.6987454879877797
22.692346741879287,2.01276760367621,15.72388486695306,1.6954953363564889
22.88054302574119,2.024438314339559,15.42198489562572,1.6825734484834285
23.057626176606362,2.0151490642601475,15.124181395087477,1.6519857034686491
23.239956034551575,2.0125304102701915,14.8462542321597,1.6278120393653515
23.412429136416417,2.0345877936893437,14.559508453739374,1.6239588267587055
23.586932635624198,2.0368949437210375,14.28581061032788,1.6041478641527325
23.73945342911112,2.0449984578028824,14.01802473824638,1.5897232953404872
23.91735840695948,2.051771752390044,13.736428997193999,1.5741666381816442
24.070230699757587,2.0521811042952463,13.473258312244255,1.553551636647345
24.229556593441608,2.0639119493347056,13.189785395374633,1.5417453337787888
24.379929769854428,2.076983011140143,12.913065758302736,1.5303636634983449
24.52091833367258,2.084091346478995,12.66755997350702,1.5153956746817092
24.665158404700257,2.0989205535658675,12.430174712268537,1.5071444091831565
24.81534616896516,2.1001956779137205,12.181664929541046,1.4890237145414285
24.954705100889598,2.1119786268995093,11.944994829492641,1.4782747135704992
25.1177380673204,2.1058237157246094,11.709878111852895,1.4550484689975445
25.26398788764305,2.123080813676481,11.48687215808614,1.4482558612393868
25.38861466853894,2.1295668737637707,11.249948614349547,1.4343260307820636
25.516306621119345,2.1216570822523266,11.029357115554607,1.4109782403386337
25.649296780940595,2.1321274268092734,10.818427312137024,1.4005934537577045
25.803536692472505,2.137422683627745,10.615582570499638,1.3868339328517238
25.9560292111472,2.1479867605314804,10.428310257726102,1.3767727229521605
26.104861907971305,2.156751716349862,10.241906342841867,1.3660504120212194
26.21371955200378,2.1601574074526018,10.064542157149031,1.3526019618016967
26.373922495989888,2.1691047906873124,9.883355435817988,1.342794729814666
26.53075195134438,2.17116789855345,9.70791740259551,1.3280568842407583
26.66480668691842,2.1645396698314485,9.54227020173906,1.3087437813014136
26.774951648014262,2.176753558409856,9.381647722230019,1.3018014852009874
26.898895443479656,2.182599780511787,9.233571237649304,1.2916802484214827
27.011861116962425,2.1820692297986137,9.083430641162519,1.2781198671135543
27.122508079234162,2.201844485030108,8.951043971780045,1.276978238470992
27.220382334231306,2.2078465518466817,8.814917647189374,1.2683510352601417
27.340071742782182,2.2057569970485815,8.68293613489137,1.2550979313003026
27.476333162688764,2.2131341328850636,8.568562910375585,1.2473837405424877
27.588712278070414,2.2041159090096096,8.455243942175798,1.2311237298305338
27.702593894113065,2.2137986974615553,8.344911451358255,1.225860607939134
27.812319466562666,2.2249666184164276,8.241133185836965,1.2216531660706276
27.939451151609727,2.22160049797867,8.144031776984079,1.2096879933135432
28.038838805607604,2.218317967368876,8.06195723602322,1.1987162515379766
28.17531746993198,2.232013838840366,7.9804929349151035,1.1973797055696103
28.308600597685274,2.2370610210951063,7.909163082322064,1.1913819664693641
28.419101997306225,2.2522615321587667,7.852861670193999,1.1918568139653922
28.530337069413797,2.246370411435214,7.806685797599929,1.1822685318232018
28.671762039895476,2.2477616950744728,7.757120251089423,1.1767934419123665
28.81256288855588,2.251153412193372,7.726355558871857,1.1724995517354264
28.917612725718698,2.2630926248531074,7.698731337598469,1.1737355836908054
29.030976099836018,2.2742880259692684,7.690186342758849,1.175706608574593
