coupler,coupler,$D^a [mM]$,$D^a [mM]$,$I_{islet}^a\ [pg/islet]$,$I_{islet}^a\ [pg/islet]$,$\gamma^b$,$\gamma^b$,$I_{cell}^b [pg/islet]$,$I_{cell}^b [pg/islet]$,$G^b [mM]$,$G^b [mM]$
2.6971902374049876,1.069479034118772,0.5037712436432145,0.22380713115002365,2.2072824058796834,0.44794834454569954,11.000248379087111,3.474278804469025,2.002424081233884,1.4785207388170938,3.2058657451047843,1.8723373165762642
2.9781223305689783,0.9641818369477972,0.5062909622492525,0.27485147100135643,2.3171515266672134,0.5709201642107405,11.002364288939487,2.621841180988056,2.2257491088705033,1.0691876995841287,3.2367680961961853,1.4141008119442733
3.2581651788234254,0.9249542834003429,0.5085205198582617,0.28447229715609,2.403615704945336,0.6058486288633368,11.004933750673768,2.3150230237606784,2.525827447746371,0.9392038341041036,3.275844175419503,1.2517988813110452
3.537609167024902,0.9138620020257574,0.5108337546368178,0.28708592965569724,2.485001504798985,0.6222925492983015,11.007500764651947,2.1678091318116164,2.852232317004009,0.9011167944549434,3.3173776620324276,1.176910416277735
3.814871275545874,0.9186716412680782,0.5133336110226989,0.2874132513729382,2.565975648231549,0.6323021266399326,11.00984035641259,2.0943894976156443,3.187489592340514,0.9062853317445058,3.359580985532574,1.1426992287582416
4.090658007432224,0.932150465100505,0.5160313099745831,0.2884616794949496,2.6471303661443515,0.643404554402084,11.011939022969159,2.054645364127042,3.52259075292958,0.9318613485667226,3.401662852326303,1.127216334619952
4.365283282120997,0.9524422775251732,0.5188799576215632,0.2897640830896412,2.7273122189066896,0.6548454825157805,11.01383658115007,2.0322955852297904,3.8531204570783735,0.9683174187807789,3.4432647912451535,1.1214942360966438
4.639538895448356,0.9747338516931332,0.5219283895420039,0.2898603527153179,2.808097669078061,0.6631367590906436,11.015500365744971,2.027557810889899,4.179173307918864,1.0126890621310467,3.4844269493750395,1.1255381401901783
4.912608599298346,0.9983493853184019,0.5251451134566745,0.2905330946224926,2.8887106090557166,0.6725420627480678,11.01697085590615,2.027857633599266,4.5000779504459105,1.057025099846243,3.5251363759990215,1.1323414817247304
5.182971870318618,1.022984890238555,0.5285430332378381,0.2925178702675806,2.969592745440946,0.6847493438863697,11.018367889403978,2.0171319496142255,4.813060237178564,1.0950409997513892,3.5651295207951033,1.1329930438833644
5.453130478066127,1.0493306588478628,0.532064700897806,0.2919115520501073,3.0495419942849633,0.6906645801993178,11.019595472334387,2.0202753015196535,5.122441261189382,1.1375853382667092,3.604877297526937,1.1412735763083652
5.722982422005491,1.0762820866102332,0.5357988900125836,0.29286131174773994,3.130609595914594,0.69989859095729,11.020747568061083,2.015590282189561,5.426109873682072,1.1734348503226775,3.6441453420836085,1.1450416349429173
5.990378030111626,1.1015889433857622,0.5396845809480398,0.29379049181289596,3.2115279854837833,0.7089526531277496,11.021825677861226,2.017741559121672,5.725033619281056,1.213276818249209,3.6830500476609513,1.1526557076189392
6.2575330593367005,1.1271211288265457,0.5436942707202479,0.2950814465820429,3.29182676252903,0.7186864710321073,11.022831405505494,2.023334637193685,6.019646566704267,1.2536616101254074,3.7216291352724795,1.162165950624054
6.522738678374352,1.1523730697783194,0.5478105601386736,0.2967319617236026,3.371302745729312,0.7290696404017909,11.023814341248917,2.017494118403387,6.308551534111695,1.2854692305499458,3.759690903648839,1.1650297872037394
6.787093213018471,1.1761151084162633,0.5521576250554663,0.2991979648559472,3.452406213061364,0.7411751453764951,11.024714595656418,2.023828576682909,6.595372642930455,1.3225385560908463,3.7976902950506424,1.1747733433692962
7.049228055226492,1.1989871233328748,0.5565912466348026,0.3009789381458534,3.5324796093436897,0.7515749819440726,11.025598113689927,2.021586012296059,6.877804605304609,1.352594534704281,3.8353281944565283,1.1794769832025729
7.311808454556306,1.2227120404904899,0.5611012213541084,0.2991754343723881,3.6114555745376897,0.7527297989581743,11.026445711233304,2.0255389794905905,7.157671167058657,1.3860426413737224,3.8728190563514873,1.1877264583101668
7.573972972072124,1.2459902589886058,0.5658470736864691,0.30193339542725495,3.69212407037218,0.7650658921799559,11.027291170444345,2.0195684617849117,7.4337225271564735,1.411221108371254,3.9099711454514727,1.1900781585829743
7.83343559923146,1.2682119162729395,0.5706323695593948,0.29927217794738864,3.7712353031087402,0.7635519117749544,11.028120979656403,2.019185687514715,7.7071489401046165,1.440376653739609,3.9469476163636004,1.1956591666418777
8.090047087705223,1.2891075605802456,0.575706632545692,0.3054145442760084,3.852864749311667,0.7842682350027971,11.028925097006727,2.02043454150681,7.9785177240297065,1.4681283416435527,3.983848050781637,1.2020901327269011
8.346079863831562,1.3101550883640556,0.5807403794014798,0.3046299228865455,3.931839097302879,0.7872184507052729,11.029742443400352,2.0224542855932928,8.246472862964216,1.498200281944854,4.020453966580977,1.2090115225177882
8.599368043248642,1.3306418390204118,0.5858951663512564,0.30535804716735226,4.010738119776338,0.7937535062150005,11.030553630553898,2.018709896302567,8.511807077957851,1.521014491311125,4.056889028715301,1.212359262456885
8.854484495286762,1.3507534710977929,0.5912418569492862,0.3071409966759879,4.090686614288043,0.8028295716140409,11.031360076733009,2.0145660167768304,8.775634115679068,1.5414534570269798,4.093269676847453,1.21534979226238
9.107305314889034,1.3704966354974204,0.596771414477272,0.30909461765532203,4.171533544762658,0.8122600557144706,11.03216961159622,2.0176873004543303,9.037940239518546,1.5680873506094268,4.129605134162182,1.2227046545626676
9.358443275790759,1.390145713225261,0.6023680371491644,0.3108052327828502,4.251596566781096,0.820994555031747,11.033004034752306,2.0196877784976386,9.297217529141443,1.595395568204496,4.16566952185115,1.2294143254048737
9.60690729067025,1.4089942986570945,0.6080836808856457,0.3123929055673683,4.331665806347137,0.8292301299895607,11.033834756431874,2.023599135152444,9.555082236213432,1.6214115486317564,4.201725307332147,1.2371880384390455
9.854020999037173,1.427616451033727,0.6138576398934895,0.3133828951948453,4.4109350729373435,0.8357435861222916,11.034694691397332,2.019614875362763,9.810000878266436,1.6410731435968102,4.23752002743476,1.2401132938034884
10.100296743034137,1.4448638912822214,0.6197564799713906,0.31747132490019353,4.490360730036411,0.8503794003751687,11.035572642882451,2.013445799930183,10.062965304737803,1.657913286680569,4.273188414221474,1.2416081046963015
10.347034359572064,1.4632221419333682,0.6256400084453335,0.31847229243116915,4.568134075776258,0.856645139348497,11.036459052092537,2.018728027901566,10.315193487937986,1.684421975936954,4.308900822343458,1.2501257255844087
10.590929345698036,1.480492355157621,0.6316854509333186,0.318315130520331,4.646630875129631,0.8595600216187118,11.037375983766909,2.0193646335013438,10.564852371274371,1.707168468279814,4.344390224844961,1.255766451075394
10.830612646225532,1.4969971823741024,0.6378486560851933,0.3207103528270939,4.725269180239682,0.869276102429855,11.038309812536273,2.0225922838819557,10.8128716629936,1.7309859153892602,4.379834174002672,1.2629649869131487
11.073417028429072,1.5143555051904416,0.6440491754428335,0.3216686545044497,4.803068622339722,0.8749940270043935,11.03927424057018,2.024276513660684,11.058908423403436,1.7537404510722205,4.415112995729488,1.2691917216848845
11.3113654070075,1.5307647171670113,0.6503669392349636,0.3229036790648333,4.8810593555806765,0.881310028523509,11.040267746555621,2.01820964447437,11.302789607930908,1.767788898393302,4.450236967246393,1.2704728839694073
11.551107817130587,1.5473372264681666,0.6568004672616473,0.321137686611764,4.959235490881624,0.8792871228241459,11.041291319541847,2.0190372081968095,11.545268060231107,1.789574373666112,4.485274134808137,1.2760818196443364
11.790535429276002,1.5641119621692288,0.6634370782817867,0.3247125770842523,5.038628931907933,0.8917886251536099,11.04234321752119,2.0174686338374204,11.786297570652613,1.8076018429843437,4.520214535009766,1.2801081132145118
12.02539407016102,1.5789705056438754,0.670162861527836,0.32474566382242337,5.117895610216305,0.8944906939747788,11.043421742322623,2.0258439106098973,12.026207666945837,1.8354763292025853,4.555152220469458,1.2904447721893857
12.261429209760447,1.5949588814138478,0.6769716092668965,0.32827442281303026,5.196954945514644,0.9067437675754415,11.044540726513455,2.0232026998897994,12.263691208458651,1.8521840552011104,4.589837904369295,1.2937355532278891
12.493769282031336,1.6087669374816334,0.6838449207517976,0.33124264874570924,5.275640669277752,0.9173609118889937,11.045693853951988,2.0254259393424467,12.499558326322148,1.8743772392003177,4.624421751783412,1.3001182046431874
12.72656744676456,1.623928966097898,0.6907499961561718,0.3325467990170413,5.353605027934134,0.923270038238663,11.046876900977063,2.0253149601590423,12.734365778083955,1.8915287364397133,4.65898248263965,1.3049133212938628
12.956315575541403,1.6377608088713052,0.6977661999956638,0.3343317355905166,5.431763773621054,0.9303967299677485,11.048093205653666,2.0245035482182736,12.96838150483923,1.9058482232917706,4.69358537491872,1.3091820910937357
13.186734573900265,1.6514823100180422,0.7048257160722382,0.33725415964145417,5.509377836291483,0.9406168175959301,11.049359582987494,2.0221005941260985,13.200235126658146,1.9219316591676001,4.727957639375292,1.312465191467072
13.413772989427375,1.6644913852131946,0.7119082794741549,0.3372365049716838,5.586263433575352,0.9425293825234974,11.050662408729936,2.018617161875643,13.430801540470481,1.9351933170165747,4.762288164800121,1.3149652454742045
13.641254686240725,1.6785189780218248,0.7192253530690794,0.3401301251838076,5.664713411916884,0.9524665014113622,11.052007707454688,2.0210624882025736,13.659933884580896,1.9562214180390678,4.796519614264005,1.321337509570135
13.86690237179142,1.6923585081517176,0.726538981672575,0.341183120472171,5.742172402309684,0.9572097004574716,11.05339025894691,2.0244475803059543,13.8879673692625,1.9762758162296967,4.830731925317534,1.3282718772691886
14.090072372538037,1.7043102692613514,0.7340458683552815,0.34282447612816946,5.82073649399825,0.96349444095674,11.054820870468266,2.0215045617803464,14.11354745185365,1.9911599099733694,4.864688969297548,1.3310558378448596
14.317280765734226,1.7176716911313485,0.7415504302915669,0.3450446794511597,5.898351540156233,0.9713606529361242,11.056295934003593,2.0156543830025315,14.337542265306936,2.0032536184704197,4.898459007681266,1.3318725084420937
14.53940927983187,1.7298230552792975,0.7490742965502826,0.34601552407975855,5.975281934067483,0.9756141783941541,11.057808330689266,2.0167173447467066,14.561161227616806,2.0201056285437176,4.932316023036653,1.3371631700306705
14.758809664293972,1.7412058815665774,0.7567675930987882,0.3483918514571443,6.053074933627513,0.9837361295890751,11.059365822409404,2.0177686968173707,14.783499073869375,2.0363476665209785,4.966122525714053,1.342417882798474
14.979261268907974,1.7538151364245005,0.7644218851461458,0.3501170504809686,6.129625854868522,0.9899702763756599,11.060970802927095,2.0169691165335784,15.00460684693524,2.0502639641022995,4.999853010293555,1.3464121921214391
15.198029367650726,1.7650141667314947,0.7722646861815443,0.35244265369599587,6.207236734757904,0.9978068086136072,11.062623381931163,2.021900313506966,15.224789002845831,2.070838158710391,5.033570193524429,1.354229429323396
15.414034901650455,1.7768063193464536,0.7801948551801546,0.35184254065849224,6.284890146289157,0.9972985752375553,11.064325842591636,2.0208708745964827,15.442860060913738,2.085591189081586,5.067083633911595,1.3580510147820777
15.625407839748059,1.7876798658254696,0.7882081610947264,0.353390552039806,6.362536520384871,1.0028120923977109,11.066074325283651,2.024364120062657,15.660030242059209,2.103239085169123,5.100660532422819,1.364851300880919
15.840984316161371,1.7999044615676107,0.7962625352560628,0.3553165336932179,6.439788011814172,1.0093324211350443,11.067875196777162,2.0186625118470536,15.87520068808264,2.111658219495566,5.134009313564267,1.3654387528005516
16.050167271485233,1.8099503933908831,0.8043311438263098,0.3550382630891687,6.5164079400922965,1.009515861056252,11.069726329052482,2.011427707293346,16.088007621675228,2.120795949272481,5.167122223523303,1.3649708007628933
16.261506378653603,1.8209376412104281,0.8126098314771497,0.35984680448440143,6.59426000890995,1.0240950017678527,11.07162425556668,2.0244815578212214,16.301596395391808,2.148873616787768,5.200552017958916,1.3781919068076718
16.470372184547838,1.8316023331807039,0.8207950215721577,0.36307745255708934,6.670496157054889,1.0341495692278624,11.073574508477702,2.018721553022376,16.512237262480188,2.1564976877604827,5.233621516960402,1.3786153781571455
16.673780738761888,1.8401273910573175,0.8290783492249977,0.362965527304211,6.746936234084899,1.0346031594083482,11.075577014150092,2.026671196093009,16.722160326095214,2.1795841659722224,5.26679532687754,1.3883780380525172
16.881873345949757,1.84974631322034,0.8375304850571733,0.36603010565233907,6.824213946419062,1.0440546840113278,11.07763086641116,2.0250240629669216,16.92985197535699,2.1926353418620748,5.299702286953674,1.3915714558941286
17.089575134107918,1.8602791965171146,0.8459438447912462,0.36878642415003454,6.900435287759666,1.052584601872456,11.07973756102151,2.027740771840991,17.136951068804297,2.209164185485143,5.332634945440515,1.3977089940406162
17.2949031666251,1.8705244211065026,0.8544250102349559,0.36971552569876837,6.97659394525283,1.0558343754382629,11.081899068076494,2.0315829663939615,17.34310430966392,2.226146463592235,5.365548652330885,1.4045992321554635
17.497149107106004,1.8790639788305281,0.8629978339418231,0.3735995321843458,7.0529012264708015,1.0674714908905416,11.084114277688068,2.0291569431461376,17.547359878331054,2.236529706972757,5.398283762066223,1.407145086899622
17.69260505221855,1.886679232613724,0.8716248252458986,0.37498557141896816,7.129036219292197,1.0719202852495489,11.086383921176456,2.0284321888930146,17.749899725929126,2.2490470029022083,5.430952224900716,1.4108381397581677
17.890617973190654,1.8944660969433118,0.8801995547347351,0.3745761484310524,7.204062002279407,1.0711838078268394,11.088708050892837,2.026344658707297,17.950955204278788,2.259514835641529,5.46353588330521,1.413543724004083
18.08978662676416,1.9030592928752426,0.8890399183414824,0.37763529406765145,7.280776793328499,1.0803076559220242,11.091087560684574,2.0251098012297817,18.150762305256027,2.2712392792095826,5.496038087379624,1.4168159431565963
18.29296006770326,1.913590678205438,0.8978793434791715,0.37928294593875955,7.356846470700677,1.0853543756231019,11.093525080220985,2.025459941780078,18.35011828824631,2.283508756710114,5.5285401780707435,1.4211502518908112
18.496446086145603,1.9241420335202388,0.9067187888300039,0.3789049045032965,7.4322955719596395,1.0845531221048723,11.096018745998837,2.025711085543876,18.54845894578349,2.2971335972244438,5.560909347216147,1.4254181396336993
18.691270318910842,1.9321719868292093,0.9157354720176604,0.38046130971370357,7.508643888156621,1.089237984124584,11.098566121591366,2.0205553683117676,18.745071345360145,2.3037730178710016,5.593127888892068,1.4258354002332168
18.884300354872153,1.939978399642743,0.9247679670200232,0.38296820590085057,7.584515219836223,1.0966016492640407,11.10117352032302,2.022448412883703,18.940797977753835,2.318562924603107,5.6253655621231715,1.431189098479431
19.077026910587588,1.948248309677345,0.9338829935204944,0.38634520254858334,7.6604872494868195,1.1064116908834631,11.103835989470545,2.019537563184978,19.13490233605579,2.32721222827602,5.6574639550822985,1.4331132981372574
19.26611200635667,1.9555745986163582,0.9429564409691394,0.3886908869061493,7.735530537161083,1.1132255040867653,11.106562622580261,2.0193403444757676,19.328292784731815,2.336552064949562,5.689642452294825,1.436894074589002
19.456600210170887,1.9642221221993197,0.9521428656234439,0.38904771164020135,7.810942028033693,1.1142993489936326,11.109348104097585,2.026690235197819,19.520232573757593,2.3591215917093256,5.721702928889451,1.4461044521582158
19.640579345161164,1.9719067209058552,0.9614284706725765,0.3909691211797228,7.886594734151788,1.1198135390498891,11.112187429924544,2.0285035724675025,19.71007329131854,2.3736810092722522,5.753614231001631,1.4513406278455991
19.825988903685502,1.9797664711780556,0.9706857586047735,0.39365750930152427,7.961455005220468,1.1274832389801133,11.11508676264485,2.028118958795292,19.898655923301106,2.3836353139303714,5.785486762202356,1.454951585262294
20.009775566812944,1.987754278530794,0.9799524891483291,0.39559548959153845,8.035851319021177,1.1329638040664138,11.11803837900762,2.026580048291014,20.085168670008837,2.3951796554739384,5.817142033764273,1.457748337845195
20.190905262292908,1.994747674087507,0.9893908284974813,0.39894502628380385,8.111092051541629,1.1424492152218493,11.121059435877312,2.031931148764401,20.271171920832877,2.411435400827201,5.848940156254944,1.4654267245388377
20.375102623452143,2.0038070205511542,0.9987784473375083,0.40062636763483866,8.185393798557056,1.1471177537488693,11.124139718952826,2.031704410239942,20.455840613102513,2.4204951834642117,5.880630384430776,1.4690710650822574
20.559164331376532,2.011216096875217,1.0083167706058689,0.40287301788618024,8.260368016904923,1.153369909701151,11.127274631991014,2.024948935591137,20.6389482525634,2.4226182947325543,5.912136707166148,1.4679738992588458
20.73830601938002,2.017526263951703,1.0178478492155265,0.4050539633527723,8.334762114096211,1.1593951803634481,11.130480313433814,2.028339506575976,20.821471874260688,2.4369921417454203,5.943733346429673,1.4741946814842721
20.91486738900905,2.024754262786431,1.027420626010304,0.40319951046930025,8.408973499860487,1.153838445022114,11.133741304980358,2.03178874163663,21.002081808352923,2.4534924377472285,5.975166930066923,1.4804820307190172
21.09141919398049,2.0313445830466756,1.0371025799366809,0.40683639360010104,8.483518194861576,1.1639619782605914,11.13707463055698,2.031290366619452,21.18209519374213,2.459013762317587,6.006706943522943,1.4837943923408934
21.265106242617307,2.0381019822605793,1.0467321080469831,0.4082793617661223,8.557163687746188,1.167771979164788,11.140455974353873,2.0319335253770188,21.359673221985034,2.473164826303803,6.037952298338114,1.4880197424878812
21.435115071906633,2.0448908165902835,1.0565303082848012,0.4113963947654775,8.631613409872791,1.1763409547420185,11.14390136588411,2.0326114594693294,21.53586556644181,2.4841520898083926,6.069192778378119,1.4922021100685006
21.604701507897545,2.050083204796596,1.0664237254427,0.4153824906837861,8.706296444536765,1.1873562745855317,11.147400261258683,2.029103947859804,21.710093129004115,2.490467511693606,6.100265185464672,1.4932909658387534
21.772085749970028,2.055230177181925,1.076254908752143,0.41686903516888063,8.780025073597013,1.1911898715745357,11.150957482620715,2.02718245048894,21.88265986117971,2.499218609617,6.131242570323745,1.4955148588445033
21.937103815421807,2.0608439468220516,1.0861492149860745,0.4180679668867706,8.853754716481502,1.194175987711831,11.154585493241518,2.0301285572333256,22.054149754200115,2.5119937138007824,6.162276649612922,1.5012792065495615
22.10903824632468,2.066254001601183,1.0960873939188196,0.41670279485708495,8.92734126979009,1.1898127338192754,11.158267078035124,2.0298718016815567,22.224260707704122,2.521990808146801,6.193144769285596,1.5046782936987977
22.275264968585937,2.07046195650378,1.1061180157063037,0.4200715848217474,9.001141859256752,1.1989365624906616,11.162006909232522,2.028171484048303,22.392928645216063,2.5297544509088876,6.223914209027857,1.5069741369093468
