coupler,coupler,$D^a [mM]$,$D^a [mM]$,$I_{islet}^a\ [pg/islet]$,$I_{islet}^a\ [pg/islet]$,$\gamma^b$,$\gamma^b$,$I_{cell}^b [pg/islet]$,$I_{cell}^b [pg/islet]$,$G^b [mM]$,$G^b [mM]$
2.6971902374049823,1.069479034118772,0.5037707476289274,0.22368772596566927,2.354194969226157,0.44748248660264306,11.00026056167875,3.495876839785313,2.0032561542492893,1.4867629242217286,3.2059595101273697,1.8839610941661666
2.978122330568973,0.9641818369477972,0.5068236342527443,0.2744018042231019,2.58997359304962,0.5506460363789195,11.002700803749079,2.623163812127708,2.2845009590653524,1.0146342988516972,3.237541362421023,1.414884834179708
3.258165178823427,0.9249542834003429,0.5098610756763744,0.2851196543344462,2.8098888601795635,0.5957264449807144,11.00549790526907,2.307266306384315,2.6560816236579647,0.8602397032301621,3.277101007543553,1.2478117858507063
3.537609167024884,0.9138620020257574,0.5132373027970502,0.28752715488361175,3.034274542202647,0.6248907147770256,11.007987775621796,2.162335898163263,3.0464693469875948,0.8149923973960398,3.318684043149027,1.174187068977363
3.814871275545853,0.9186716412680782,0.5170588418157962,0.28733691645472614,3.267830849377913,0.646172178984068,11.010094260178455,2.0980134850911956,3.4290998817681047,0.8258005300579564,3.360377185542946,1.145011124805105
4.090658007432186,0.932150465100505,0.5213159670108785,0.2879902081341071,3.5091965034211166,0.6699173199916788,11.011917621036122,2.0597626592077236,3.7945751818587703,0.8566984747464274,3.401388795798659,1.130457761559795
4.365283282120954,0.9524422775251732,0.5259949868369928,0.2900508092410223,3.7565957385412987,0.6969349440606898,11.013425461001258,2.0406827535010814,4.144477547991535,0.8933792772383863,3.4418558541311697,1.126437536755287
4.639538895448327,0.9747338516931332,0.5310853792385949,0.2934606675474734,4.008980680486363,0.7268195353339651,11.014752406189698,2.030812725759247,4.4792747988313755,0.9348674718331639,3.4816408596705886,1.1275818527888548
4.912608599298328,0.9983493853184019,0.5364078878475809,0.2915148140422415,4.260297249229892,0.7430450734813007,11.0158718481482,2.0357526567720976,4.802385626268973,0.9793097839912045,3.5210451595715297,1.1368698697596322
5.182971870318583,1.022984890238555,0.5422007828131041,0.2943108162935681,4.518008522548164,0.7696382860191838,11.016909513706675,2.0294166549655523,5.113343483815893,1.014677105726863,3.5597796003444486,1.1398246118645519
5.453130478066096,1.0493306588478628,0.5482963925827821,0.29533945630292996,4.776646823257952,0.7911399250066129,11.017857923190892,2.021681228601555,5.415312920382603,1.0461903096485432,3.5980813242222656,1.1418430536596824
5.72298242200546,1.0762820866102332,0.5547169134237738,0.2983561605829671,5.037034703854365,0.8182294515719066,11.018704803803123,2.023280019759412,5.7109013728427565,1.079964938249739,3.6362053219930854,1.1489850863844324
5.99037803011163,1.1015889433857622,0.561484267532679,0.2993464782685645,5.299163531409165,0.8368844998512689,11.01949699133864,2.0289302452537155,6.000057013059799,1.1158118278594171,3.674033415793948,1.1584060972246086
6.257533059336656,1.1271211288265457,0.5685248644346675,0.30141136110422334,5.5616274925530265,0.8599120934210078,11.020266296093334,2.029972824972667,6.283164065699768,1.148261766036977,3.7114526327857607,1.1651680556683264
6.52273867837435,1.1523730697783194,0.5757516920048459,0.30296936941748526,5.821895242220366,0.8815618132421587,11.02100674100801,2.0223790645275583,6.561367415937795,1.1711455127422132,3.748569368781372,1.1668115052030363
6.787093213018478,1.1761151084162633,0.5833031545499519,0.3054334691807326,6.0836542753128935,0.9034361253327252,11.02171863540972,2.0174554383474432,6.836080052413924,1.1948752531833022,3.7855232940433177,1.169873140550519
7.049228055226544,1.1989871233328748,0.5910712666779063,0.30706744043283474,6.344420492663676,0.9227293879397083,11.022405788922242,2.0162521160604223,7.10759338677832,1.2200803636952753,3.8223482881263284,1.1750027131579845
7.3118084545562585,1.2227120404904899,0.5991430155287031,0.3075121244216365,6.606482417519831,0.9361307171585312,11.02307363533153,2.018729340296591,7.376598996635329,1.246537189986425,3.859075696764643,1.1822149742569046
7.573972972072107,1.2459902589886058,0.6074991685691004,0.3099696117442322,6.869582738039267,0.9565546855827752,11.023744255781544,2.0167299685743743,7.642911368644026,1.26900592637537,3.89558556637545,1.1867596032354037
7.83343559923137,1.2682119162729395,0.6160920874621552,0.3147659552829862,7.131924298021431,0.9848263082684429,11.024409102146187,2.0207150861832606,7.90702046009983,1.296420854118551,3.931991806974096,1.194797010264798
8.090047087705193,1.2891075605802456,0.6248216863122085,0.31694939198245303,7.3911738943550205,1.003545751645136,11.025076028389783,2.018994351863873,8.16846671641962,1.316800596431049,3.9682329158282847,1.199382242900558
8.346079863831527,1.3101550883640556,0.633655923085746,0.31641307669668955,7.647604706819648,1.0130626747812155,11.025764329420335,2.0151068574463333,8.42728518893819,1.3380826288395864,4.00420785514327,1.202666994086811
8.599368043248644,1.3306418390204118,0.6429068204639985,0.31892521316071165,7.907245921213747,1.0298927934546007,11.026442606124686,2.0204030451255957,8.684517442522058,1.3645716541989439,4.040202910224048,1.2113533057550219
8.854484495286826,1.3507534710977929,0.6522820407720322,0.3217458547870039,8.164859465645025,1.0498834113105033,11.027133470570773,2.0212156581365335,8.94008670231914,1.385312232573543,4.076060939793892,1.2173021717821977
9.10730531488909,1.3704966354974204,0.6617974565388073,0.3237470462656302,8.420382903395147,1.066249919715481,11.027832969598192,2.02586310571168,9.194372642720486,1.4086991673973117,4.111884373340607,1.2255301773789642
9.358443275790755,1.390145713225261,0.6715713337906418,0.32803098524720303,8.676178857932783,1.0894218243091254,11.028575425271448,2.0189055455122067,9.445831692161725,1.425566151885628,4.1473088907985485,1.2267496253016528
9.606907290670234,1.4089942986570945,0.6814318810579912,0.3293531868140688,8.928939795165045,1.1020133214500323,11.029318299852967,2.0183972534398724,9.696277861228864,1.4443301152844015,4.182797141296647,1.2317550330186113
9.854020999037157,1.427616451033727,0.6914276126956337,0.33280788956617857,9.179987642003029,1.1230794265676525,11.030080478438451,2.0181638814661973,9.945130482235195,1.4627839225457837,4.21820489005433,1.2368863437214483
10.10029674303422,1.4448638912822214,0.7015370267444798,0.33392770271666333,9.42895916915909,1.1340832283329003,11.030862582903378,2.0156664535451347,10.192620381535246,1.4772660656934566,4.25356025607443,1.2405607383803208
10.347034359572035,1.4632221419333682,0.7118424395183969,0.3372185654902623,9.678040238931699,1.1528653563907274,11.031666402992991,2.0249683956782785,10.439295064807652,1.505168986203651,4.2889109202828815,1.2515344689322652
10.590929345698017,1.480492355157621,0.7224100532712159,0.3393955792307293,9.92766293878412,1.164981198950506,11.032516872973577,2.0251766779326377,10.683076479277045,1.528440739285358,4.323850572545085,1.2569439643188265
10.830612646225596,1.4969971823741024,0.7331064296960828,0.3428748546672825,10.175336577501858,1.183942259756327,11.033387922362557,2.017546823734182,10.924860383889332,1.538934484270279,4.358684573812939,1.2573316570982742
11.073417028429105,1.5143555051904416,0.7438658363503543,0.343023501794993,10.420629598233118,1.1898935723274722,11.034282478477408,2.0174291259907258,11.16619267536628,1.556676340637893,4.393535478466713,1.2623393860786192
11.311365407007504,1.5307647171670113,0.754761964469161,0.34795658701922816,10.664479156791659,1.215141921636181,11.035209458824879,2.0179040911965354,11.405669519050951,1.5759281964810956,4.428251011373494,1.2677040551675343
11.551107817130546,1.5473372264681666,0.7658177766025355,0.3516056190952813,10.907406209739403,1.232571304653154,11.036163909100841,2.021125152294281,11.644258841593352,1.5961703497724564,4.462934864870658,1.2747505364991554
11.79053542927607,1.5641119621692288,0.7769697600622109,0.3500489211167667,11.149132103418493,1.2296726792834454,11.037147052487219,2.0192165289547943,11.88221251035365,1.6066884018957064,4.497623163148459,1.278470230915476
12.025394070161044,1.5789705056438754,0.7883866471464288,0.3533837630861459,11.39174416640983,1.2464065995234883,11.038169087581112,2.0208988062402318,12.118701515448793,1.6242104540768245,4.532230455053152,1.2844836923492764
12.261429209760477,1.5949588814138478,0.7999098837068342,0.35802872722352425,11.632674132786354,1.2682518293143101,11.03923537700298,2.0204897987437627,12.35350843182053,1.6428720711576423,4.566612055557915,1.2891868147589272
12.49376928203124,1.6087669374816334,0.8113135571912065,0.36025411883894953,11.86844346935347,1.2824920918254905,11.040337040557251,2.018784812681094,12.586610142168732,1.6588846932289987,4.600876484421278,1.2930022475530112
12.72656744676451,1.623928966097898,0.8230417584869636,0.36237816378737786,12.106014377557193,1.2913134668591637,11.041472115621453,2.015251615341344,12.818810999424201,1.6692907341527363,4.635131364131299,1.2955480520912375
12.956315575541465,1.6377608088713052,0.8346939882217508,0.3628432522165407,12.339843035793905,1.2978854154363253,11.042644253494817,2.0244828887429005,13.049919725703061,1.6958038575300396,4.66939654207811,1.3063302769081309
13.18673457390028,1.6514823100180422,0.8466849844941517,0.3650300185199735,12.575695666841979,1.3070422956410348,11.043862926113954,2.0208977946922557,13.278993499653712,1.7084317984211541,4.703377716764521,1.3088230871902684
13.413772989427313,1.6644913852131946,0.8589475124922944,0.36864322575511943,12.812114707490567,1.3212949289294833,11.04511990880936,2.02245956130111,13.506798100939644,1.726596779336047,4.737319969223285,1.314605968923506
13.641254686240789,1.6785189780218248,0.8709723719603769,0.3697957256599482,13.042613392755403,1.3314555680662363,11.0464127591248,2.0245963408354477,13.733993866037164,1.739910595093648,4.771340744516672,1.3206764654095453
13.866902371791516,1.6923585081517176,0.8831997293870479,0.3744389791890635,13.272897864395613,1.351899640889807,11.047752783498144,2.024195172962416,13.959851447424581,1.7520903647594936,4.805257303927469,1.325090398894381
14.090072372538094,1.7043102692613514,0.8955910190097917,0.37815657632790817,13.502372653231374,1.3665652588680333,11.049145666988473,2.015031179166352,14.183290198616644,1.7605266077199322,4.8388265724438115,1.3237761443867573
14.31728076573417,1.7176716911313485,0.9078770679207253,0.37982609655934413,13.728929348041854,1.3763575473969405,11.050574413263938,2.021134069228149,14.407369608401927,1.7806108933249087,4.872628379717042,1.3323934957731787
14.539409279831872,1.7298230552792975,0.920407275677513,0.3823081038487873,13.956138463817291,1.3860878440409488,11.052055684383463,2.0219285531408713,14.629042007314794,1.8010429052766768,4.906070901737563,1.337580773018815
14.758809664293993,1.7412058815665774,0.9329946873784692,0.38593936790365974,14.181509582135387,1.4020922882240565,11.05357488799507,2.020282703484044,14.849855973992783,1.8082945233604093,4.939644529237996,1.3409951818508163
14.979261268907859,1.7538151364245005,0.9457251067675773,0.3894585033719308,14.406312400380518,1.416002689556006,11.055145751659579,2.0222133439305003,15.06958717989578,1.8244378210891843,4.973112751688525,1.3468153705441062
15.198029367650674,1.7650141667314947,0.9584353999828883,0.3914749222499363,14.628657999371466,1.4255238128634098,11.056766144066518,2.0183361583851767,15.287732268693496,1.834475542416767,5.006404373769306,1.3487382268765518
15.414034901650432,1.7768063193464536,0.9713236054461419,0.39466951326128413,14.85066555444885,1.4380772930902763,11.058433870612635,2.0161729524229695,15.504770012135037,1.8441077175127596,5.03970755842482,1.3517342351950492
15.625407839748155,1.7876798658254696,0.9841677961211593,0.39829041956453254,15.069192229020802,1.4544890824292813,11.060150336712042,2.023656877929764,15.72038113153944,1.8640175738644529,5.073097011881082,1.361185836023596
15.84098431616134,1.7999044615676107,0.9971454896431002,0.3988746372543465,15.287355173453264,1.4556990419471005,11.061919802590564,2.0233776139517943,15.934277784247973,1.8781757658891802,5.1062200218255835,1.3654472231469548
16.050167271485165,1.8099503933908831,1.0101759271706492,0.4003999780996713,15.503664458145733,1.4628116541306488,11.063738271278906,2.026152697996203,16.146603466632907,1.8930428970500028,5.1393617524350725,1.3717148076993921
16.261506378653518,1.8209376412104281,1.0234203051238344,0.40322826267497774,15.720303900041381,1.4729040283652997,11.065608995138136,2.028423788287049,16.35769240907537,1.9076604802649102,5.172419629626003,1.3776313180739583
16.470372184547895,1.8316023331807039,1.0367005807524443,0.40534432268838166,15.93502995011072,1.481329795128887,11.06753201985259,2.025793792020328,16.567323176020622,1.9149489902133792,5.205392595518818,1.3801722084549246
16.673780738761803,1.8401273910573175,1.0499475512203629,0.40660037215224837,16.146388014693255,1.4875247216544796,11.069507075749238,2.0239869874190886,16.774311444146186,1.9305480479115218,5.238108517125659,1.3833064916270896
16.88187334594963,1.84974631322034,1.0633825696595833,0.4119340654686623,16.35805560989393,1.5082543096682604,11.07153303414084,2.025392672707235,16.98068292770605,1.9449955119473818,5.270854061064391,1.3885537298280217
17.089575134107875,1.8602791965171146,1.0769481808884551,0.4143495243371596,16.569333283717253,1.5150962744300296,11.073611426816827,2.0233242292508753,17.185964409949264,1.9559912015949181,5.303445836947744,1.3913963452252467
17.29490316662506,1.8705244211065026,1.0906721095069742,0.41757362623437644,16.78048042539969,1.5258960638775025,11.075744360589553,2.0228044818948403,17.390501301773096,1.9658738601224233,5.336053168826865,1.395239540804361
17.497149107106114,1.8790639788305281,1.1041940486005049,0.42063539926450216,16.98719948651087,1.540686811498725,11.077932802907716,2.02488411693285,17.593690689649698,1.9801975249911148,5.368598725771071,1.4008695523622352
17.692605052218536,1.886679232613724,1.1179337284035256,0.42261342058794915,17.192861606442584,1.5457942874975494,11.080175447499862,2.0247375020219818,17.79451330390329,1.9903147357568525,5.401071577825557,1.404925784037522
17.890617973190555,1.8944660969433118,1.1318257402081755,0.4253852987621497,17.398012894334176,1.5546106540544395,11.082474277806687,2.0246388951721515,17.993909091488497,2.000503341336318,5.43348757956238,1.4089898357329176
18.089786626764166,1.9030592928752426,1.1457900958183993,0.42966067093260346,17.60206566113221,1.5704594795004418,11.084829587527294,2.0258232780420906,18.192255899682507,2.0134277166213668,5.465827317217971,1.4139363414615125
18.292960067703348,1.913590678205438,1.1596487262719186,0.430334542331629,17.804059768007892,1.573028145850749,11.087238837581175,2.0175003713626185,18.390056049893925,2.0142274939887743,5.497986593858855,1.412197312955002
18.4964460861456,1.9241420335202388,1.173645716024977,0.4334209689632758,18.006799061835125,1.5842189737961996,11.089712763297994,2.017698344599546,18.588579736355452,2.022593727043651,5.5302949291081145,1.4163507335768393
18.691270318910846,1.9321719868292093,1.1876201024731217,0.4342898162551302,18.207092435311147,1.5869475253044858,11.09225216823212,2.029642877206562,18.786075268294823,2.045686820356522,5.562711820885285,1.4287711094987974
18.884300354872053,1.939978399642743,1.2018465437566201,0.4401455331178463,18.407691238767505,1.6078011887060375,11.094838994426455,2.0244600838439797,18.98068768203565,2.051984437419764,5.594713179494568,1.4291724071043082
19.077026910587655,1.948248309677345,1.216033707834045,0.4417954499730365,18.605753143067183,1.61221430487721,11.097480789689845,2.0283303610000556,19.17379577902188,2.074566858791015,5.626589322329168,1.4359688189534352
19.266112006356696,1.9555745986163582,1.2303583393263926,0.44377098201288856,18.802823408312182,1.6175404761307113,11.100179708984864,2.0247367678091637,19.365224622473892,2.0780302938585486,5.658452511504559,1.437364437406146
19.456600210170848,1.9642221221993197,1.2445943824263628,0.4458806981612204,18.997291446369605,1.6263144150269828,11.102951796727337,2.0318645628919176,19.55650360909831,2.0905756391091144,5.690549637305154,1.4463184023186966
19.64057934516115,1.9719067209058552,1.2589676746125842,0.44911712721888464,19.190241822819186,1.6369557906174381,11.105771372809944,2.027300989790134,19.744666479587067,2.0967779227606553,5.722265824155922,1.4470106743789464
19.825988903685502,1.9797664711780556,1.27334300222683,0.45145725446221524,19.38119722668094,1.644638065613394,11.108654587850676,2.0294481478580098,19.931676231961937,2.1099398395068314,5.754018563500621,1.4524437335822613
20.009775566812937,1.987754278530794,1.2878789043142496,0.45461629966723993,19.571589047064332,1.6539564414107608,11.11158831071299,2.0290940760500153,20.116620361312382,2.1240277448228415,5.785536126508086,1.4561004613338429
20.19090526229303,1.994747674087507,1.3023574002206906,0.45617610374280965,19.759267944227034,1.6589090222045515,11.114582357338039,2.0229711154179615,20.300006516686317,2.123381770995324,5.817040914760696,1.4555109443000878
20.375102623451976,2.0038070205511542,1.3167745928779946,0.4584037398725491,19.94511364775623,1.667759515668811,11.117638035219782,2.0237830491046007,20.482680507156402,2.13607033982134,5.848492233090495,1.4599103835987437
20.559164331376564,2.011216096875217,1.3313258187009702,0.46125836648894813,20.13098088147787,1.6763011454996335,11.120751526211414,2.02324294148411,20.664481434476745,2.1461901042294578,5.879845440415513,1.46330703958272
20.73830601938012,2.017526263951703,1.34602032768726,0.46391711999025426,20.316288503318034,1.6830463009849996,11.12393514217067,2.0308044543621016,20.845301325044097,2.163737206429184,5.911290825080057,1.4725335059857794
20.914867389009107,2.024754262786431,1.3607161124372331,0.46393839774034357,20.499571453236044,1.6806557297450055,11.127169246708203,2.0304105722114847,21.023927503712383,2.1730281457241962,5.94250721080135,1.4760039110850818
21.09141919398041,2.0313445830466756,1.3754836723710449,0.46753180011692114,20.681735142886026,1.69357662726151,11.130464276135417,2.030574453831897,21.20125214652696,2.182414493317145,5.973666683913315,1.4798448256223493
21.26510624261728,2.0381019822605793,1.39031909616805,0.4711055864193413,20.862234829991028,1.7048431836930988,11.133817949732876,2.0217720556835745,21.376908955835855,2.176582703890987,6.004732859866284,1.4770783864155463
21.43511507190659,2.0448908165902835,1.4051354835879357,0.4726159845528997,21.040151155821096,1.7084286054549174,11.13725440917874,2.031218564198726,21.551529475968415,2.195149200891652,6.0360103616182155,1.4876290616243681
21.60470150789755,2.050083204796596,1.420069438489408,0.47767908351064653,21.216975196931077,1.7258036441320677,11.140734893825993,2.0310845325308637,21.72363741676128,2.2056199488966692,6.0669837854418835,1.491205352438267
21.77208574997001,2.055230177181925,1.4350621095987806,0.480633314217879,21.39196103992277,1.733411117560807,11.14427850936337,2.0311195832911495,21.894045366053383,2.213570751065537,6.097928894499893,1.4948571308302183
21.937103815421782,2.0608439468220516,1.4499749767171248,0.4816426156340981,21.564121279425603,1.7356494703866938,11.147888951950444,2.031110130953603,22.062771491801946,2.2187521789454374,6.128878269039764,1.4984329021267577
22.109038246324687,2.066254001601183,1.4648323843143163,0.4849971859208512,21.735248012721197,1.7485025771156604,11.151551173414473,2.0303336924103452,22.230813996496096,2.228823285524859,6.159640567104245,1.5014625306427336
22.275264968585972,2.07046195650378,1.4798676349032918,0.4869866812540988,21.906142113866487,1.7514920945807304,11.155275336880775,2.033648774961387,22.39759864037898,2.2439237986658664,6.190355015684424,1.507495071324722
