coupler,coupler,$D^a [mM]$,$D^a [mM]$,$I_{islet}^a\ [pg/islet]$,$I_{islet}^a\ [pg/islet]$,$\gamma^b$,$\gamma^b$,$I_{cell}^b [pg/islet]$,$I_{cell}^b [pg/islet]$,$G^b [mM]$,$G^b [mM]$
2.6971902374049757,1.069479034118772,0.5037713249505595,0.22607600300075062,2.5012327202546976,0.45211213411780604,11.000274669089688,3.505775440658094,2.0044844075062924,1.4895802894584598,3.2060410508968493,1.8892801975256779
2.9781223305689775,0.9641818369477972,0.5072700932242975,0.2756318754697513,2.828581834786914,0.5279984613887595,11.002957999321884,2.6334094401182955,2.357478524645948,0.9525972772524568,3.238536118064491,1.4204609081496034
3.2581651788234263,0.9249542834003429,0.5108601147053665,0.2850409206460967,3.123024413103045,0.5672443916189026,11.005721699210484,2.3178705030751874,2.7946399708726695,0.7828804049567711,3.2780199775584773,1.2537558770364656
3.537609167024897,0.9138620020257574,0.5148779910352588,0.28648668969804086,3.4075718464588083,0.5957275531063502,11.00794286009066,2.1717715149943464,3.2192582157086247,0.7451128054520448,3.3184038065287815,1.1796986822812225
3.8148712755458694,0.9186716412680782,0.5194180078544751,0.2891587430576334,3.6884422913984984,0.625905271808727,11.009638969682264,2.095406375589027,3.6110762347489396,0.7564722665624658,3.358392642550387,1.1439408951477545
4.090658007432218,0.932150465100505,0.5243331519753832,0.2915584201308609,3.9652655155771916,0.6563114217265162,11.010948966621864,2.064857907571006,3.9722001703307352,0.7936657357366923,3.3978440050122765,1.1334373815204417
4.3652832821209895,0.9524422775251732,0.5296975240677274,0.29090109655589014,4.240879073241416,0.6719113996356256,11.012029519073334,2.0424879565683467,4.3078505177425495,0.8286016793564551,3.436598067831964,1.127481751071941
4.63953889544835,0.9747338516931332,0.5354151700790424,0.29306213158864075,4.515597318352444,0.7000485014910804,11.012941885382611,2.0284889016127194,4.625101376256262,0.8623812006434034,3.4748537878433607,1.1260841444071283
4.912608599298342,0.9983493853184019,0.5415246060493814,0.29356146126120547,4.789247150358733,0.7174252641007592,11.0137088363427,2.0256813829747022,4.929188211996787,0.8961119238979354,3.5128565305230017,1.1307851233201691
5.182971870318609,1.022984890238555,0.5479499259172058,0.29226830055615577,5.06102234045195,0.7301087250571999,11.01440452668758,2.0221536382107503,5.222404311879137,0.9265452770237586,3.550462653086493,1.135042289024075
5.453130478066118,1.0493306588478628,0.554825620928798,0.2973436767123142,5.333197221388555,0.7619623091899359,11.015024201745874,2.02132720020192,5.508288771179384,0.9534480242986948,3.5879060698415324,1.140686179620391
5.722982422005481,1.0762820866102332,0.5619175378415334,0.2997878784462832,5.6029049600692655,0.7836745302968428,11.015618206008499,2.0162313694478176,5.78837262129143,0.976995875018806,3.625041643870086,1.143866193715853
5.990378030111628,1.1015889433857622,0.5692604736430107,0.30153201370625765,5.870958779325988,0.803038931097839,11.01619500058858,2.0167167103893133,6.063592582816904,1.0076081393569423,3.6618875078701145,1.1502092016770065
6.257533059336683,1.1271211288265457,0.5768829073140294,0.30312129960642026,6.138457111604357,0.8206338910340891,11.016729528820719,2.0211630068073085,6.335578201819339,1.035328249806368,3.6986609820431524,1.1586895273346636
6.522738678374351,1.1523730697783194,0.5848670691394069,0.30769117949694674,6.405529211396887,0.8466267366088238,11.017281816303363,2.021519228883073,6.603805799628372,1.0644354244375611,3.7349964355560807,1.1648718918086496
6.7870932130184745,1.1761151084162633,0.5928761923534426,0.3083646904026933,6.669219036499351,0.8624869390666738,11.017812778945542,2.0180360046425743,6.8697852065897065,1.084162432420658,3.7712128095891084,1.1686632257458542
7.049228055226519,1.1989871233328748,0.6011029856112429,0.3097503042187682,6.931724299500237,0.8793786096918861,11.01833767113629,2.0159810386220443,7.133721142077489,1.1050296939605408,3.8073033156094724,1.173201567226975
7.311808454556281,1.2227120404904899,0.6096721448687029,0.31268111190644066,7.194953823884407,0.8974901941975951,11.018848553505086,2.0165953013489557,7.396583837672315,1.1245958604913833,3.84340118668374,1.1791904823920392
7.573972972072114,1.2459902589886058,0.6184896317995363,0.3143454369253893,7.457864558571094,0.91027382536345,11.019367869947223,2.021423887647815,7.658253367636801,1.150180266278422,3.8793735309241795,1.18766592671994
7.833435599231406,1.2682119162729395,0.6274754702511528,0.31758950280893417,7.718807982888049,0.9323023910202078,11.019906631004902,2.016828292247981,7.917826685745145,1.1670021828299018,3.9150830882825427,1.1905572277816316
8.090047087705205,1.2891075605802456,0.6365496218338987,0.31676290312170624,7.976416537942594,0.9375222693483328,11.020442324394832,2.0207813105039127,8.17589696620816,1.1906589569388193,3.9507996360359217,1.1984356513141954
8.346079863831541,1.3101550883640556,0.6459872899260654,0.3205408563834219,8.234433345736148,0.9583857404429609,11.020986071173246,2.0280682734926896,8.432407686042147,1.216242533983946,3.9864403872691763,1.20828536575912
8.599368043248644,1.3306418390204118,0.6555102099515583,0.32266003139652344,8.489182252859555,0.9736287345039696,11.021557689155326,2.0181749793956016,8.686499230269593,1.2241004468037526,4.021798595826352,1.2078167410281797
8.854484495286803,1.3507534710977929,0.665180078841086,0.3256106188129585,8.74375168562878,0.992167170477276,11.02214722796716,2.012926352122827,8.940102135195207,1.239420818287621,4.057093202418988,1.2100623777977646
9.10730531488907,1.3704966354974204,0.6750913491187231,0.3277007317364965,8.99763881477229,1.0032925168677114,11.022752066676738,2.0126970645122717,9.19258060606088,1.2594992230160489,4.092330946558115,1.2152787416920356
9.358443275790757,1.390145713225261,0.6852074598821513,0.33156069505656977,9.250450429681615,1.023064413382532,11.023373277790014,2.011112736305053,9.443702085830493,1.2751214069264019,4.127506450705336,1.219605222163298
9.60690729067024,1.4089942986570945,0.6953927563149221,0.3326172804167655,9.50030029365708,1.0318437598262125,11.024020468793735,2.01401461142448,9.693011098469105,1.298375386581644,4.16254366808435,1.2266687021314635
9.85402099903716,1.427616451033727,0.7058732353651774,0.335269176285849,9.749558114054087,1.044571137563238,11.024684323733194,2.0200534512209347,9.940735444531773,1.3214008909209092,4.1975438123699504,1.2356044814855247
10.100296743034193,1.4448638912822214,0.7163987194607924,0.33923999000086585,9.996672179870671,1.0669190114267937,11.025366902279792,2.021832582673051,10.18720734001434,1.334580676220426,4.232539767920027,1.2418581118753
10.347034359572044,1.4632221419333682,0.7270125580247156,0.34055456203551127,10.242859698614676,1.0750422664244688,11.026088477390738,2.017978276546913,10.432623797645897,1.3461284290679871,4.267346250860644,1.2446499326992337
10.590929345698022,1.480492355157621,0.7376736990982922,0.340879945812991,10.487337363889942,1.0822048444244527,11.026835173405157,2.021855078620854,10.676885777344568,1.366982049521781,4.302147849154173,1.2521912344576003
10.830612646225577,1.4969971823741024,0.7487326424244439,0.34661320153146324,10.730673938225317,1.1057346513815292,11.027622286200728,2.0166703428979944,10.91836663763408,1.3800537618727193,4.336664056672195,1.2541034940364484
11.073417028429095,1.5143555051904416,0.7597597209910724,0.34729567433697606,10.972679396909722,1.1100836099209608,11.028436389000563,2.01726142922179,11.159368227674626,1.3983833968771728,4.3711658385163945,1.2595433691661615
11.311365407007502,1.5307647171670113,0.7708452357134694,0.3510839122389783,11.212285274657033,1.1320024929810408,11.02927850742844,2.0175685244749095,11.398597343888602,1.4130861085036441,4.405630196568433,1.2647429393380056
11.551107817130559,1.5473372264681666,0.7821774115528857,0.35334124229979974,11.452147698712347,1.138843976732408,11.030153803946432,2.023372756720871,11.637104360998332,1.4347323805548513,4.440058667026027,1.2733911486236917
11.79053542927605,1.5641119621692288,0.7936157569593479,0.354973708474204,11.691868454484394,1.1469808883324568,11.031075139503162,2.016216775656858,11.874309384770962,1.4431693819373366,4.474193918166498,1.273852321765936
12.025394070161036,1.5789705056438754,0.8051786341193548,0.3583819044334755,11.929085540836216,1.1636600186994055,11.032027139456327,2.0179161143145556,12.110169715021065,1.4618035184403988,4.508347097940781,1.2798535885403046
12.261429209760468,1.5949588814138478,0.8169125229148464,0.3605514807866577,12.16572971180494,1.1711956678695286,11.033009572605964,2.022372010982805,12.345369651880974,1.4778160996225824,4.542567133956158,1.2875412132690665
12.493769282031268,1.6087669374816334,0.8288127529025355,0.36365465111700995,12.400491798872629,1.183914357457767,11.034036678145723,2.01905065809256,12.578592506795871,1.4867982054118878,4.576600302342383,1.290267825093782
12.726567446764525,1.623928966097898,0.8407242801456887,0.36479100372759715,12.63366571024157,1.1902550720485898,11.035098952222112,2.025440039743361,12.811156635831392,1.506547921760498,4.610716223342691,1.2991772499991308
12.956315575541447,1.6377608088713052,0.8527683403157739,0.36925820544719307,12.865107270886522,1.2112040310240322,11.036208544465856,2.0217373391803974,13.041572981385249,1.515899489264883,4.644592427756102,1.301606706074807
13.186734573900276,1.6514823100180422,0.8648145142973207,0.37167605456461666,13.095196069559192,1.2218081472765827,11.037366666406793,2.0173321019187362,13.270644980067177,1.531602312173062,4.678210116403113,1.3035865299951084
13.413772989427331,1.6644913852131946,0.8769994144338242,0.373700543504635,13.323781982577199,1.2292879861071833,11.038556301626555,2.0144826125331514,13.498585276360023,1.538037084314751,4.711973499190249,1.3064107625662629
13.641254686240769,1.6785189780218248,0.8892895012180785,0.376454326617481,13.551791094999292,1.2410587054675122,11.039794744053406,2.01832703002476,13.725341064448864,1.5610773812006264,4.745573787181742,1.3136376573892883
13.866902371791488,1.6923585081517176,0.9017603874526267,0.37945759308056354,13.778826233219968,1.2511371473812771,11.041076789246631,2.0154331542347337,13.950486231480253,1.5722436397573287,4.7790148583383605,1.3164196846225662
14.090072372538076,1.7043102692613514,0.9142734110764905,0.3803407031357762,14.003622730323915,1.2540757504666054,11.042399432900204,2.0145639717359085,14.174444483130282,1.580998472792893,4.812521535542873,1.3204341316037542
14.317280765734186,1.7176716911313485,0.9269656400189544,0.38463400571247763,14.229991216459398,1.2719726605551998,11.043770272143144,2.0213810188401364,14.398513986869622,1.6025160971492458,4.846005706261352,1.3295137322171715
14.53940927983187,1.7298230552792975,0.9395990641735974,0.3839220039320922,14.453293897218746,1.2684269758060867,11.045187155615096,2.022522258369227,14.621074917603654,1.611712581736467,4.879443418913075,1.3348137039780965
14.758809664293986,1.7412058815665774,0.9524601383856648,0.38927323856518425,14.67523367641667,1.2917319678595618,11.046655447847268,2.022253339302396,14.841635209144357,1.625654544064651,4.912687243413463,1.3392080500087886
14.979261268907894,1.7538151364245005,0.9654375675259415,0.3928957510802654,14.896183494202475,1.3022137547704842,11.048172036868275,2.0222686758488804,15.061102951494249,1.6401972761452461,4.945825317391057,1.3437592794817992
15.198029367650692,1.7650141667314947,0.9784159683125915,0.396277786229799,15.115668047085888,1.3158849809316058,11.049735005661244,2.025954701716257,15.279762288066653,1.652691237107392,4.979064292389796,1.350676119325894
15.414034901650439,1.7768063193464536,0.991338486830169,0.397876465929779,15.332593757690477,1.3233817277371567,11.051349886878866,2.022594375560254,15.496686791387695,1.6567073548790265,5.012183307232231,1.352871041185389
15.625407839748123,1.7876798658254696,1.0043030544590605,0.3989442809369763,15.546353814755408,1.328112775259231,11.053016293315704,2.0202389710080153,15.71128513175359,1.6644503027899191,5.045248372966999,1.3557117576373614
15.84098431616135,1.7999044615676107,1.017556380716112,0.40521454690606484,15.76174990363801,1.3511536139194935,11.05473563994354,2.0212346115616016,15.925184517611005,1.6801525546638878,5.078216120527665,1.360805970375581
16.050167271485186,1.8099503933908831,1.0307579394143864,0.4035103050584144,15.973260112507443,1.3387787812990626,11.056505052543885,2.020767356205786,16.136453248685022,1.697266035068282,5.110956528302285,1.3649193520843235
16.261506378653543,1.8209376412104281,1.044159560782495,0.4075610975311143,16.185391552978537,1.356309102587221,11.05832416358444,2.0204018219616238,16.346889282182392,1.7068709123722665,5.14372236291897,1.3690076742804544
16.470372184547877,1.8316023331807039,1.0576475120832036,0.41118505156767904,16.395596775529793,1.3680910011765854,11.060196175430791,2.017430828890306,16.55599051279871,1.7124535907036742,5.176421597686102,1.371285856840461
16.67378073876183,1.8401273910573175,1.0710691211587549,0.41222014240696997,16.601699681875417,1.3716445009745597,11.062121155175074,2.0258360424719624,16.762614808396414,1.740134843864989,5.209030254138813,1.3813453743365465
16.88187334594967,1.84974631322034,1.0846841839718708,0.4165381461409073,16.809146728521895,1.3872012167730259,11.064098729819493,2.029041867097309,16.968738748704556,1.7488230602338113,5.2416738038088235,1.3877779295420913
17.08957513410789,1.8602791965171146,1.0981188042194348,0.4195275815567699,17.015562610341547,1.4017944277678724,11.066130869086,2.025301240169878,17.174129226419076,1.7545664471800153,5.2740969619918765,1.3894679434375556
17.294903166625073,1.8705244211065026,1.1118476800275372,0.4208374577743145,17.22195745491152,1.3985893221932677,11.068218123198527,2.02089152081232,17.378629904506237,1.7595935592727767,5.306460993858663,1.390641891163995
17.497149107106075,1.8790639788305281,1.1256262563003092,0.42283246691161275,17.426376767660464,1.405550253090022,11.07036502838115,2.0208082937336695,17.582085265079666,1.7636571662108405,5.338981974302108,1.394708336089643
17.69260505221854,1.886679232613724,1.1395481250313737,0.4276719150098982,17.626365005341473,1.4231490639439885,11.072568692200594,2.0240447313883414,17.782425659621996,1.77917648847762,5.371384330419196,1.4011114654137777
17.89061797319059,1.8944660969433118,1.1533769559661313,0.42723116795799015,17.824559452955622,1.4183121598186197,11.074827740773692,2.024829475470141,17.981101019173423,1.7897719145397373,5.403691946975725,1.4057986114957743
18.089786626764162,1.9030592928752426,1.167336327536202,0.4301075533584286,18.02347649399243,1.429645640950269,11.077145715376547,2.026967721205507,18.179136068674204,1.7996952979366487,5.436006910032257,1.4113909543626613
18.292960067703316,1.913590678205438,1.1813366287494143,0.4368599010804289,18.224235082782098,1.4573571121081665,11.079516159318608,2.020101591116241,18.37721945613373,1.804521817540928,5.468022787929431,1.4107217857816075
18.496446086145603,1.9241420335202388,1.1953053409570684,0.4357563195104194,18.425647834183074,1.4458054704307395,11.081952079508243,2.02398076957407,18.57636192575628,1.8174896605313513,5.500225528679886,1.4174752081852853
18.691270318910842,1.9321719868292093,1.2095325372111407,0.4390240083596576,18.624609267525155,1.4559858435389594,11.084442449035297,2.029079498217206,18.773117265178932,1.8389833091455379,5.532216440753661,1.4251374925706415
18.884300354872092,1.939978399642743,1.2237682581438394,0.44281848314349753,18.820239151558514,1.4698071158676829,11.08698518939684,2.0253560521683265,18.967594502176166,1.8444613008086108,5.564027178342017,1.4265507025479887
19.07702691058763,1.948248309677345,1.2378600867895557,0.44494462177211896,19.013473630947175,1.4792182249003054,11.08959052779147,2.0295015398842238,19.16093391887404,1.8595680674139836,5.595888345781643,1.4334651068058764
19.26611200635669,1.9555745986163582,1.252187576608809,0.4482349169782281,19.204958678402296,1.486476716688499,11.092253608352896,2.028972023651983,19.35212643846336,1.8654614720554357,5.627661595838402,1.4370443866302829
19.456600210170865,1.9642221221993197,1.2665740339702958,0.4511137229698092,19.395914499642732,1.4940090428276265,11.0949721766349,2.0214918051689548,19.54207455918602,1.864233512131394,5.659269837819469,1.4356647332552512
19.640579345161157,1.9719067209058552,1.280865370070507,0.45406202630379544,19.582736114092516,1.5065196382532597,11.097756182592885,2.0184354928809696,19.729803091063726,1.8669712345103984,5.690942735225843,1.43735851120964
19.825988903685502,1.9797664711780556,1.2951551073878347,0.45490301785414017,19.768373936847855,1.5072132013736592,11.100599240511782,2.0225390099018035,19.915982604119055,1.8866514416866418,5.722515851902734,1.444183413799731
20.00977556681294,1.987754278530794,1.3096108186834703,0.45835029461063415,19.953348168015573,1.5177314021372608,11.103497893473339,2.019895289529144,20.10039233764706,1.891485264280358,5.753968308731922,1.446143006106167
20.190905262292976,1.994747674087507,1.3241295114728833,0.46219027395313084,20.13626166442389,1.5293303467954797,11.106451189505044,2.0177073175013067,20.282870691516607,1.9015795507299915,5.785268903834704,1.4484165033007061
20.375102623452054,2.0038070205511542,1.3387981856119195,0.46453442424581587,20.319991831485126,1.5311159133621852,11.109480417306736,2.0224583993424847,20.465417717481298,1.9095660587075252,5.816794069436182,1.4555825491835799
20.55916433137655,2.011216096875217,1.3534905729436655,0.46431107411064787,20.503831518904434,1.525745293198446,11.112558254635328,2.020001138287792,20.647111704891792,1.9174820428789627,5.848019166122185,1.4576095215707616
20.738306019380072,2.017526263951703,1.3681848854713368,0.4672899712996908,20.685117065348642,1.5392434618289235,11.115707579092582,2.024679413702541,20.827526653881907,1.929545980991855,5.879358212313855,1.4647293528902547
20.91486738900908,2.024754262786431,1.3829775368919188,0.4692822870114415,20.863834133238267,1.5422521111075667,11.11890684402749,2.0275970922275253,21.005674809276332,1.946584787633263,5.910455138625281,1.4706187834274522
21.091419193980446,2.0313445830466756,1.3978209564509705,0.47187323665934167,21.04139085094595,1.5496158864364473,11.12217309441663,2.0309710506455474,21.18261198392786,1.955603221651916,5.941595621961749,1.4767757421006933
21.265106242617293,2.0381019822605793,1.4126746794097191,0.475790622355208,21.21671800780226,1.5635193150499784,11.125495236683623,2.031793796630303,21.35766057843797,1.9644713368684161,5.972592346605736,1.4810803365006533
21.435115071906612,2.0448908165902835,1.4273888455867887,0.4768658658123584,21.388567366958853,1.5667580865861497,11.128877628223863,2.0319640185485057,21.53043977466998,1.9717771565476498,6.0035200495844485,1.4848790169941024
21.60470150789755,2.050083204796596,1.4424920560052192,0.4822352328962045,21.560089916297436,1.5792759776028742,11.132327366073516,2.0345149353981964,21.701624809289278,1.9798789591566406,6.034467701272237,1.4903833018855388
21.77208574997002,2.055230177181925,1.4574446171053694,0.48373120851734563,21.728920687393927,1.5818809377394416,11.135830225912787,2.0289138682733223,21.87073152285262,1.9776678379785977,6.06524694047908,1.4898932682013961
21.937103815421796,2.0608439468220516,1.4724380519714328,0.48404208397802656,21.89568625921268,1.5794086988047487,11.139394675130116,2.027413122279352,22.0379184660043,1.9853764971974448,6.095969568679064,1.4923925140247385
22.109038246324683,2.066254001601183,1.4875181704023668,0.4863660489243416,22.06510005283552,1.586292588788382,11.14303182603022,2.033526295528401,22.205748767027966,2.0006856201885963,6.126767243119221,1.5004711346169646
22.275264968585955,2.07046195650378,1.5026036052922398,0.4916881751622207,22.232612516433836,1.6066559156977294,11.146715853761977,2.0331839711541946,22.37194314652585,2.0099088284173545,6.157332640634816,1.5038012545126904
