coupler,coupler,$D^a [mM]$,$D^a [mM]$,$I_{islet}^a\ [pg/islet]$,$I_{islet}^a\ [pg/islet]$,$\gamma^b$,$\gamma^b$,$I_{cell}^b [pg/islet]$,$I_{cell}^b [pg/islet]$,$G^b [mM]$,$G^b [mM]$
2.697190237404906,1.069479034118772,0.5037728597202077,0.22535530713247698,2.648227871311192,0.4506040607654843,11.00038909674771,3.4715001747051972,2.0272889508451137,1.4510576859968893,3.2062633421428286,1.8708484021842748
2.9781223305689886,0.9641818369477972,0.5076387971006245,0.2751681408829221,2.9634902909275125,0.5165345144513459,11.002624066798338,2.621763317968812,2.7344944101496576,0.6125460140049221,3.2375463142619796,1.4144338468540403
3.2581651788234236,0.9249542834003429,0.5114484196131477,0.2845534461088358,3.246927966490849,0.5449287291709202,11.003396794832028,2.3124372717724775,3.201994866964648,0.555964061603978,3.2706896474237004,1.2511648558346504
3.5376091670249203,0.9138620020257574,0.5156346098078227,0.28656508945834075,3.526733321468799,0.5702862163762199,11.003689352890968,2.160015687760269,3.54017828420988,0.585295247057184,3.3046919974573643,1.173219772260378
3.8148712755458933,0.9186716412680782,0.5202744408746685,0.2883858241433351,3.8042335983234468,0.5963391336321626,11.00381855338061,2.0909651784287067,3.8356204908298555,0.6225911890803408,3.339444191393008,1.1407997062820558
4.090658007432258,0.932150465100505,0.5253092713270551,0.28962720059024044,4.080136661872167,0.6199546369520247,11.003872475918655,2.0636058381558016,4.116899268471562,0.6533628803717177,3.3747024526026363,1.1312899612484422
4.365283282121031,0.9524422775251732,0.5307450638577743,0.29129960347537315,4.354867076162031,0.643119757146605,11.003907121924085,2.0448534926859976,4.393036525933656,0.6724253859379076,3.4100412513538245,1.126614841979873
4.6395388954483785,0.9747338516931332,0.5365531215329093,0.2934573651749458,4.629142875329432,0.6665027955175621,11.003933561469406,2.035838124879509,4.667422594096155,0.6956993330309748,3.4454049122210044,1.127379334512507
4.912608599298356,0.9983493853184019,0.5426908483996424,0.2933732395784603,4.90229904038484,0.6807364598536223,11.003971323816591,2.023533743368107,4.940367256329773,0.7132279814434537,3.48055770957449,1.126343573387652
5.182971870318639,1.022984890238555,0.5492815116349579,0.29649787520448184,5.1730381083638095,0.7043842317252714,11.00398744546725,2.0270965874126214,5.211132629003532,0.7405525078340072,3.5158924256002524,1.1340916506854855
5.453130478066141,1.0493306588478628,0.5561126409103618,0.2962518698684926,5.44318594429743,0.7159288602792987,11.004010647519962,2.0309080861533713,5.480968637864685,0.7631575488318402,3.5511207645179486,1.1420098356405408
5.7229824220055034,1.0762820866102332,0.5633058722776668,0.30108502122764347,5.713102798452477,0.7471514011029793,11.004052282556227,2.0285013846970443,5.75030431683095,0.7804478238980648,3.5861219983123935,1.1464267973808713
5.990378030111625,1.1015889433857622,0.5706235726488127,0.30120530995904815,5.980621458430458,0.7585558676925035,11.004093605580438,2.02344007900117,6.017873428091936,0.7913450927704833,3.6211449298255576,1.1492139285482332
6.257533059336711,1.1271211288265457,0.5783510417012765,0.3033625771169035,6.247886618717566,0.775115368738492,11.004149839199359,2.022367653579112,6.284730557402095,0.8126754211179862,3.6560777825279187,1.1542650431154617
6.522738678374353,1.1523730697783194,0.5863504066108575,0.30662194822757677,6.513308096135237,0.796494522214761,11.004218812306789,2.023172436957694,6.549962738944013,0.8328503305111986,3.6909312852533818,1.160357260596846
6.78709321301847,1.1761151084162633,0.5944706753478997,0.3075090031789353,6.777683636510389,0.809848136816754,11.00430104968374,2.0230216007588835,6.814122734915799,0.8486362258579342,3.725729705445929,1.1658450854431428
7.0492280552264885,1.1989871233328748,0.6029508754891276,0.30971899722797724,7.04010084110861,0.8244744070808436,11.004404062440098,2.02580221638349,7.076416643394002,0.8713861311309604,3.7603969073756587,1.173032054509166
7.311808454556306,1.2227120404904899,0.6114480866540787,0.3138958352396092,7.302549432915579,0.8547916103015587,11.004525363851988,2.0187287088171284,7.338425381530892,0.8753817761946519,3.794982840360969,1.174391116838463
7.573972972072124,1.2459902589886058,0.6202176088701955,0.31613031359992316,7.564694610045431,0.8655778052209748,11.00466488669319,2.017820158444026,7.600163870777659,0.8940226789057142,3.8295739929287635,1.1793001997779862
7.833435599231455,1.2682119162729395,0.6289966570862774,0.31442263514776436,7.824361420507796,0.8691938537481435,11.004831597274862,2.013492984441404,7.859834173256767,0.9071933828724492,3.8640123515892784,1.1821780344166224
8.09004708770522,1.2891075605802456,0.6383676018846032,0.3180728401273108,8.081462629575785,0.8850862110398708,11.005019991987435,2.011863863315329,8.116941436626385,0.9239703676607997,3.898395345623374,1.1865899230077934
8.346079863831557,1.3101550883640556,0.6478358562774451,0.3228521995485761,8.33755847345204,0.9107664382777927,11.005223464262984,2.016900156045019,8.372886616341665,0.9427245601284118,3.9328783745514198,1.1948784198950217
8.599368043248644,1.3306418390204118,0.6573518384096326,0.32228912494940537,8.591044066133623,0.9114328433377789,11.00546138790325,2.0124567849307087,8.6264959777835,0.9496820128875304,3.9671597642878,1.1975307265021684
8.854484495286775,1.3507534710977929,0.6670343834260211,0.32507228875779826,8.845980982476338,0.9322594326680498,11.00572971552659,2.012719435807164,8.880725688799577,0.9696581288398611,4.0013589328179116,1.2029727524587912
9.107305314889045,1.3704966354974204,0.6769854823045084,0.32642481504663734,9.0990140561689,0.9375839183848494,11.006027339289192,2.0130787949350144,9.133497165446906,0.9855770959639586,4.035464061184878,1.208433361840394
9.358443275790759,1.390145713225261,0.6872728039524082,0.3313961007621374,9.3504226842613,0.9595475603942825,11.006350897867328,2.0133099046799385,9.384700365230934,0.9969456989069431,4.069570576076339,1.2137461586148677
9.606907290670245,1.4089942986570945,0.6974856347774856,0.3319301950178472,9.599080959692666,0.9658023352242777,11.006708068077272,2.0151188730718843,9.633562137409758,1.014470557353107,4.103575475021843,1.2200108008828443
9.854020999037168,1.427616451033727,0.7079605761094915,0.3363968843840182,9.846380580890578,0.9881636144156634,11.007088367443217,2.022969982951219,9.88080379884279,1.0315576922472784,4.13771315259952,1.2298833113474024
10.10029674303416,1.4448638912822214,0.7185375402644886,0.3367399858316616,10.092702476913527,0.9883040828145613,11.007515409120135,2.0154920483718644,10.126864914224862,1.0323222378157513,4.171535050275466,1.2304349075061012
10.347034359572055,1.4632221419333682,0.729397757259112,0.34267888677762576,10.339443695630335,1.0166987363598534,11.007968500511742,2.0225348181076908,10.373052223013882,1.0563158993105957,4.205532245677297,1.2398087907484696
10.59092934569803,1.480492355157621,0.7399679984080324,0.3441795618055386,10.583433659865854,1.030235998611515,11.008471715315414,2.0144525488325113,10.617086052541067,1.0605232854979778,4.239127303161447,1.239923330507731
10.830612646225552,1.4969971823741024,0.7508999974225162,0.34646302861654077,10.823619861421149,1.0364457543579306,11.009002465628846,2.0103852903048702,10.857731370466343,1.067493100913746,4.2728410010785565,1.242373421488003
11.073417028429082,1.5143555051904416,0.7618967504799341,0.3503390623930269,11.066108390075911,1.0567401490428427,11.009575313075816,2.0134938897583865,11.099432070741315,1.092620714926098,4.3064375225859495,1.2492958335239934
11.311365407007502,1.5307647171670113,0.7731558409740534,0.3534948513807497,11.304546849315846,1.0650641835138794,11.010183294397443,2.0104744223293722,11.338054519778744,1.0943210882693661,4.340009847532915,1.2523173959891698
11.551107817130575,1.5473372264681666,0.7843048324137827,0.3539611321428915,11.544058435737542,1.0718251503336225,11.010831016855883,2.014914780352536,11.57706481383766,1.1150609402379843,4.373579724372311,1.2599908818583934
11.790535429276023,1.5641119621692288,0.7957152034659295,0.3575553715214606,11.78350509919289,1.087853178290814,11.011521775902853,2.0179497624548657,11.815884580171732,1.1296370006913683,4.407034085110172,1.2667847162230372
12.025394070161028,1.5789705056438754,0.8072111641596987,0.35893395851419047,12.018814017100382,1.0922200401819384,11.012250701201994,2.0220588023387616,12.051540971400659,1.1406903835125082,4.44052356069227,1.2742050030524115
12.261429209760458,1.5949588814138478,0.8189506338857575,0.36163879545971095,12.254792666328346,1.1020666444313392,11.013026533994832,2.021969604707759,12.287007690414814,1.1506280492007372,4.4738534819232045,1.2789856927206549
12.493769282031304,1.6087669374816334,0.8306777365372786,0.3635352383437398,12.487462213612204,1.1126702591805664,11.013846718653381,2.0199676267798092,12.519865588411912,1.1599344443926543,4.5070756746904115,1.2825212257172078
12.726567446764543,1.623928966097898,0.8424885386241627,0.36635295209910523,12.720197464526011,1.1262318898490222,11.014709112276327,2.0192498321465124,12.752273993356933,1.1677233117370702,4.540334052826044,1.2868044553850582
12.956315575541424,1.6377608088713052,0.8544532984557338,0.36672942606181347,12.95024383799528,1.1239287353745238,11.015616904843869,2.02386325507102,12.982422724495551,1.186619812837344,4.5735685809340865,1.2944932045380761
13.18673457390027,1.6514823100180422,0.8666135727309752,0.371500951056579,13.180640249363714,1.1461691261567946,11.016576096217312,2.0170835569145207,13.212234227955594,1.1911181089313116,4.606460826306572,1.2948957406688113
13.413772989427354,1.6644913852131946,0.8789362735470037,0.3756667383310879,13.408006879314936,1.1581115345289863,11.017578063244006,2.0163127933428995,13.439727820765494,1.2043811474195139,4.639393896263646,1.2990710771789933
13.641254686240746,1.6785189780218248,0.8911606625844546,0.37719637699248443,13.635394864818705,1.165277631277593,11.01862446054414,2.0207531555225398,13.666814209598337,1.2164779002531385,4.672448337209529,1.306545128668959
13.866902371791452,1.6923585081517176,0.903477309480892,0.38106869762877305,13.861195047239768,1.1834196053984127,11.019722522300796,2.021327787479191,13.89243157444918,1.229909424788393,4.705267696589155,1.3115603935845497
14.090072372538055,1.7043102692613514,0.9158040430187931,0.3827895217612227,14.084576385137595,1.1888029327155147,11.020866078962342,2.0231295874098283,14.11596555311548,1.2324674240773885,4.738244833453687,1.3172716528596162
14.317280765734209,1.7176716911313485,0.9283250155447486,0.3835122232548398,14.311369556384854,1.187620023609514,11.022063438027441,2.018930486093246,14.341619963738236,1.2354703275437557,4.771061202950609,1.3190819642770055
14.53940927983187,1.7298230552792975,0.9411505833850043,0.38724394642553567,14.534049532694066,1.200023513009901,11.023312706325806,2.019741569174701,14.564396971728002,1.2567898525894527,4.803733179814787,1.3241866731961394
14.75880966429398,1.7412058815665774,0.9539624792551041,0.3889301461482765,14.753744406333784,1.2053541598421686,11.024610567107846,2.021238444147979,14.784408224713827,1.2608290254334433,4.836513760452567,1.3296461420065324
14.979261268907937,1.7538151364245005,0.9667515369942117,0.39134902374244723,14.974051919335187,1.218268586309126,11.025961963773328,2.0178927657504286,15.004283818512123,1.2676446892495,4.869092832700624,1.3319312273862527
15.19802936765071,1.7650141667314947,0.9796962240615826,0.39297525853182697,15.1929560430102,1.2207194194907702,11.027365616619639,2.020258164754198,15.223010084629228,1.2776975492369662,4.90179494391687,1.3379203628586152
15.414034901650448,1.7768063193464536,0.992886903434394,0.39737461823465936,15.409296000197367,1.235598229893265,11.02882330714088,2.02295520207506,15.439403246634452,1.2938322081714424,4.934344558622452,1.3441632327181467
15.625407839748087,1.7876798658254696,1.0061742066327186,0.3990928635339115,15.621174111658183,1.235822535393499,11.030331769286922,2.017237611842297,15.651817722736128,1.299404575570672,4.966588855953007,1.3448045818495031
15.840984316161363,1.7999044615676107,1.0192519922315257,0.40178190426134097,15.836256652283227,1.2545642792005942,11.03189381928094,2.02497470316931,15.86606071659947,1.3205272927164777,4.999033144855854,1.3543414639736886
16.050167271485215,1.8099503933908831,1.0323718599265914,0.40243323460929936,16.046003944625134,1.2543689249762247,11.033509084975796,2.027893818863568,16.076332609955546,1.3283095932569668,5.031345433425447,1.3606564715366383
16.26150637865358,1.8209376412104281,1.0458629235308896,0.40576180186006006,16.257216851028257,1.2613792916210627,11.035176777073703,2.023109830044389,16.286890286290188,1.3309339301228884,5.063426859175177,1.361787219171787
16.470372184547855,1.8316023331807039,1.0593719756758349,0.4126194891335004,16.46629826330099,1.2909534827266758,11.036898795879276,2.019752082447841,16.49587252226647,1.33750366787409,5.0954793923567445,1.3638111721418003
16.673780738761867,1.8401273910573175,1.072781586019963,0.4130928573740088,16.67021956590442,1.285464569591201,11.038676266330212,2.02368458644126,16.700586959455524,1.3563474609189654,5.12753618858192,1.370738072151075
16.881873345949725,1.84974631322034,1.086203607179726,0.41519804430697266,16.877828627501465,1.2965433597614904,11.040511582017153,2.0223261873164033,16.907229055477433,1.349038945522938,5.159669593296537,1.3739969764406186
17.089575134107907,1.8602791965171146,1.0999123088249385,0.4181394678856582,17.08552217028559,1.3009467098745242,11.042403856044697,2.0260660880408032,17.11420451853525,1.37260213592244,5.191637226375614,1.380786567336511
17.29490316662509,1.8705244211065026,1.1136045234361769,0.4226550227732069,17.29106410876876,1.3201914530197194,11.044350684865401,2.0249867019806183,17.3195640674811,1.3778447558899243,5.223467492234412,1.384257735158101
17.49714910710603,1.8790639788305281,1.1272089188715537,0.4230525546837143,17.493578012150977,1.3180617868031568,11.046356647157916,2.0203933127320717,17.522378152576927,1.3713584761376538,5.25533631000538,1.385234303513177
17.692605052218546,1.886679232613724,1.141024438804319,0.42742256071315615,17.689809307444524,1.3344521879813256,11.048419945912185,2.0203155130266697,17.719699780456306,1.3873345139276185,5.287107179177756,1.3893204454062855
17.890617973190633,1.8944660969433118,1.1549047781940858,0.43161784105912393,17.887581042777338,1.346452782983219,11.05054055208525,2.020389722009815,17.917064570122385,1.395213998534429,5.318835491943243,1.3934767336298437
18.08978662676416,1.9030592928752426,1.168648722827655,0.4325187476808258,18.0865151198838,1.348340413249509,11.052725606296882,2.024915611556709,18.11530630180468,1.4022148319250476,5.350704072307098,1.4006526487858777
18.292960067703277,1.913590678205438,1.1826956516095488,0.43676394714257094,18.289246298748463,1.3601584716915576,11.054962834094873,2.0221489873047296,18.316501009290906,1.4109113932282364,5.382251015378351,1.4028358004861883
18.496446086145603,1.9241420335202388,1.196697387113384,0.43539852413017643,18.492589696529667,1.3480445497187172,11.057257826083715,2.0144756688025285,18.518852500874917,1.4078536441756193,5.413694421978023,1.4015384625012794
18.691270318910842,1.9321719868292093,1.2107119209514192,0.43831860388996835,18.688314544518565,1.3660600464431685,11.059621615622508,2.0152197528215847,18.715639109009924,1.4164165312023471,5.44529568504158,1.4060220725751877
18.88430035487214,1.939978399642743,1.2250097308281966,0.4416301329475919,18.88162147251879,1.3698035581558532,11.06204339676798,2.019386783570337,18.909388311672917,1.43722946671011,5.4767538455862965,1.4129357062191896
19.0770269105876,1.948248309677345,1.2392553961427213,0.44345963411395994,19.07436437106387,1.3749058521619986,11.06452610909448,2.0202659719251743,19.101995588661598,1.4385445252094802,5.508187141957417,1.4175002874129268
19.266112006356675,1.9555745986163582,1.2535911835194087,0.4466008592496717,19.263814988770502,1.3851565374911978,11.067070606290025,2.0165226287092066,19.291771337174605,1.4331104811664808,5.539583317584108,1.4187742042600326
19.45660021017088,1.9642221221993197,1.2678087567235183,0.447808281003108,19.454110054781815,1.3893410261768884,11.069671447499243,2.0161381281736652,19.48163144202002,1.4512731843640783,5.57080925264303,1.4224393372267798
19.640579345161164,1.9719067209058552,1.282170374507292,0.4545328769078785,19.63875404868738,1.4167134658423293,11.072336246790362,2.019376970741432,19.666995390027196,1.4622471435798983,5.602062647395262,1.4286129085986923
19.825988903685502,1.9797664711780556,1.296461697577541,0.4568195116967271,19.82399523834128,1.4180554946793253,11.075060701093976,2.0181918747944976,19.85197417717272,1.4613938764631191,5.63324702122709,1.4316230793222835
20.009775566812944,1.987754278530794,1.3109072175217855,0.4563183545470379,20.00793544688542,1.4070638758222151,11.077847430015925,2.0205414698167328,20.035738281308312,1.4740659575398014,5.664391811562726,1.43713445943349
20.19090526229292,1.994747674087507,1.3253505320169436,0.46140576128835625,20.189342666612607,1.433344672510281,11.080696838936836,2.022635985347275,20.21726349241524,1.4802275186812344,5.695507713188779,1.4424404365905732
20.375102623452133,2.0038070205511542,1.3399121241639538,0.4625060356348953,20.373179952091014,1.4261204706606831,11.083606762600843,2.022707052283804,20.400233377235033,1.4843235320160535,5.7265473989595295,1.4462881212179268
20.559164331376536,2.011216096875217,1.3546257517538993,0.46389695430752514,20.557222272950384,1.4265221779796626,11.086580208207591,2.026002296009652,20.583562050892684,1.497731424401412,5.757544080253864,1.4524360148008213
20.738306019380023,2.017526263951703,1.3694180083802512,0.4687393223577996,20.736869405355222,1.4455909803538147,11.08960775647704,2.022852422124033,20.763546110968104,1.498560007448298,5.788355285452389,1.4539457713758346
20.914867389009054,2.024754262786431,1.384261654627133,0.4670631287787277,20.91371347661889,1.4266749140611168,11.092698370243038,2.0185850199087563,20.94076671829513,1.4975621330627802,5.819132001204413,1.4545921541869005
21.091419193980485,2.0313445830466756,1.3991110109664595,0.4709021711668694,21.09027838773873,1.4483041208716343,11.095855534241835,2.0249384944097644,21.1171420256193,1.5227673103277832,5.849913853293602,1.4628968903384973
21.265106242617307,2.0381019822605793,1.4140810025774606,0.4774026170328895,21.264224805755035,1.469393781677427,11.099076193409399,2.0295184774585238,21.291223020549456,1.5286444161919128,5.880664811841145,1.4698962439468624
21.435115071906633,2.0448908165902835,1.4289062077411288,0.4774935687097088,21.434580756422893,1.4617966592767568,11.1023450059169,2.0232941092115966,21.462051699211393,1.521514000020984,5.911178898799577,1.4690539632119193
21.604701507897545,2.050083204796596,1.4438866208820154,0.4810099489683321,21.604245446521976,1.4737161949930249,11.10567281820937,2.0253287336533017,21.631633982016243,1.544005139948256,5.9416133038019225,1.4742024541834198
21.772085749970028,2.055230177181925,1.4588430786218372,0.48454724432824736,21.771818906255625,1.4847496162128098,11.109069672002091,2.034002940783522,21.799282621635424,1.5620821557731337,5.972104574308833,1.484151499280427
21.93710381542181,2.0608439468220516,1.473643868502465,0.4832659992221612,21.937035172527715,1.4761466426552325,11.112522999633352,2.0308451057264483,21.96468662957345,1.5476910051148987,6.002490995232025,1.4854212428526585
22.109038246324676,2.066254001601183,1.4886681815340748,0.4858774466750273,22.108236396739198,1.483895642560997,11.116044667570002,2.030786918054432,22.134269182111822,1.5525785338159914,6.032895607100916,1.4889356886255385
22.275264968585933,2.07046195650378,1.5037820814118668,0.48788777368716824,22.274969859876133,1.4857885240134512,11.119632729982662,2.030737353537092,22.301133942184926,1.5559397674068018,6.063271322583444,1.4924394319864291
