coupler,coupler,$D^a [mM]$,$D^a [mM]$,$I_{islet}^a\ [pg/islet]$,$I_{islet}^a\ [pg/islet]$,$\gamma^b$,$\gamma^b$,$I_{cell}^b [pg/islet]$,$I_{cell}^b [pg/islet]$,$G^b [mM]$,$G^b [mM]$
2.6971902374049823,1.069479034118772,0.5037708035389764,0.22435785776157247,2.403200794837215,0.448764592789477,11.000256161153258,3.46854544446561,2.0032012986457928,1.475209467497385,3.2058587040279583,1.8692605332763934
2.978122330568974,0.9641818369477972,0.5069635113986095,0.27488662108031814,2.675871976858953,0.5438957607055964,11.002676830365907,2.6254643424194257,2.288281175973781,1.0140495916042433,3.2378114449402355,1.4161068288010175
3.258165178823427,0.9249542834003429,0.5102284589053746,0.28417880345024527,2.9320385489671854,0.584642268862687,11.005477206802377,2.307894762080134,2.659815230964691,0.85961980747362,3.277403294691744,1.2481591561195104
3.5376091670248857,0.9138620020257574,0.5139075215791131,0.28710361280883673,3.1904245311491635,0.616919059655819,11.008004544958757,2.164961567046275,3.048800484102592,0.8186062231582183,3.318898860287406,1.1757066731676242
3.814871275545856,0.9186716412680782,0.5180268883066151,0.2887853098478036,3.4519650323752895,0.6460354921033453,11.010091974409304,2.1005350544953254,3.430842394421652,0.8279578142210084,3.3605594354967505,1.1464473392417756
4.090658007432192,0.932150465100505,0.5225599232931808,0.29082010662192037,3.7157539724332542,0.6755808122626998,11.011904581217268,2.0642989906049425,3.7959870511411604,0.8596803935600256,3.4015614711944453,1.1330017471920766
4.365283282120963,0.9524422775251732,0.5275536369147207,0.28920294930892526,3.982989488853729,0.6912286959697138,11.013428254989478,2.044762095084819,4.145070317546185,0.8973728389237973,3.4419428906649245,1.128778207033984
4.639538895448334,0.9747338516931332,0.5329913574711399,0.29191595227511646,4.253454916130959,0.7202989677727407,11.014721694156592,2.03495592099875,4.480156246160357,0.9356966925719558,3.48180025100051,1.1298772426303765
4.9126085992983315,0.9983493853184019,0.5387319890654845,0.2924363547146459,4.5222110106743365,0.7427104347425375,11.015873563967887,2.0261698335109646,4.802463394075778,0.9721660341136129,3.5210821106157972,1.1315034998563205
5.182971870318591,1.022984890238555,0.5448498528466871,0.2951122603577808,4.791444344931716,0.7697703603741164,11.016886191759514,2.0296938525080215,5.114413787109139,1.013797233355517,3.55998497332966,1.1399570859289159
5.453130478066103,1.0493306588478628,0.5512034765215909,0.29552846156617735,5.058326506809852,0.7900438730844056,11.017826251744069,2.0255185771620874,5.416573084662707,1.0477512060274743,3.598352999305117,1.144006536595895
5.722982422005467,1.0762820866102332,0.5579987188992507,0.29932025895277586,5.328208649030638,0.8170419151005798,11.018700424786678,2.0210340464724297,5.711234564685417,1.079582615584554,3.636331095960494,1.1477642789919147
5.990378030111629,1.1015889433857622,0.5650218250542648,0.3016905059471733,5.5957999813914725,0.8406935445541485,11.019482331965392,2.021684393424804,6.000526436902751,1.1091152466046634,3.674206399018987,1.1542455732864707
6.257533059336666,1.1271211288265457,0.5723759663257341,0.3034381237801633,5.863782302151672,0.8599514882531607,11.02024211209132,2.0280170241139843,6.2841731348520655,1.1457576192639898,3.711736004882501,1.164032217843866
6.52273867837435,1.1523730697783194,0.5800366812316796,0.3033582535600255,6.1315913271783575,0.8723788487478369,11.021009155750424,2.0127028462601944,6.561520889411036,1.1655116072948777,3.748691704215215,1.1612707960517028
6.787093213018477,1.1761151084162633,0.5879400591394887,0.30370661169137925,6.398238316310878,0.8876740030264473,11.021703024988675,2.0151274551870357,6.8368037832012964,1.193491953660872,3.785777543708159,1.1685399508357024
7.049228055226536,1.1989871233328748,0.5960613636708322,0.30886111727095145,6.662813125979415,0.9200766464693744,11.022385407102242,2.0134813277990573,7.1083549865639295,1.2173674778652406,3.822640012148803,1.1733951995862606
7.3118084545562665,1.2227120404904899,0.6043408921381902,0.30978284076917434,6.924676356335678,0.9345482790439915,11.023047953559043,2.0198638051789577,7.377523678177657,1.247112199308543,3.859427800427218,1.1829042507631016
7.573972972072109,1.2459902589886058,0.6129465662677361,0.31259507492812694,7.188165009534029,0.9540720413898693,11.023728152289006,2.015531155729782,7.643340239907018,1.2690397988748894,3.895859267153527,1.1861134743975363
7.833435599231383,1.2682119162729395,0.6217395348218218,0.31414496661588653,7.450010785976633,0.9696283077719609,11.024390505688222,2.015784281807027,7.907372459683697,1.2917707040043303,3.932272560042887,1.1919047817250654
8.090047087705198,1.2891075605802456,0.6307224118862731,0.3168076134850431,7.710005278047159,0.9896080103295704,11.025066421648804,2.0164526597386674,8.16855003321193,1.3170552595835894,3.9684502403734245,1.197948401184905
8.346079863831532,1.3101550883640556,0.639950358430862,0.3200893674078048,7.9692023120177575,1.0097034634830842,11.02574335959582,2.016992765210283,8.427598698451096,1.3402719651564388,4.004501841208519,1.2038410045977257
8.599368043248644,1.3306418390204118,0.649385933656212,0.3227336604310747,8.226829379323643,1.0267945113109114,11.02642029634031,2.020770688769283,8.684724887160078,1.3645895486473596,4.040494323414563,1.2116118861863079
8.854484495286819,1.3507534710977929,0.658848058713284,0.3238795927275843,8.481476761620407,1.0412102070219493,11.027129185975884,2.0171702469616495,8.939487219280073,1.3850454478409324,4.076160653695571,1.2149592102757094
9.107305314889082,1.3704966354974204,0.6686310539539002,0.3256824246854438,8.737147292384751,1.0535199525708725,11.027831763255938,2.023160380576049,9.193461093806961,1.4104894105689438,4.111900006586185,1.2239908665314039
9.358443275790755,1.390145713225261,0.6785722676354929,0.3285163018737145,8.991478970834791,1.0714720043320307,11.02855756308684,2.0210316099788126,9.44544396829593,1.4277863350021793,4.147447052687865,1.2280685643359195
9.606907290670236,1.4089942986570945,0.6886444367534598,0.3301080350565966,9.243448150004392,1.0841030609074862,11.029308023759162,2.0157794500167827,9.695502849674925,1.4431707156687894,4.182827354692704,1.2301963373787783
9.854020999037157,1.427616451033727,0.6988532270357922,0.33161026857807285,9.493621641189636,1.0965075229079129,11.030070265377374,2.0194526118399754,9.944386786983296,1.4663966777964068,4.218214130877406,1.237729388220182
10.10029674303421,1.4448638912822214,0.7092472624203705,0.33650477837089543,9.742880817763012,1.1214915867836521,11.030861506110542,2.015592995179054,10.191261690317527,1.4819893828327397,4.253400279799475,1.2406006816687702
10.347034359572037,1.4632221419333682,0.7197600683204686,0.33783058059345855,9.990616166382974,1.1304388350300782,11.031673097317288,2.009349537839572,10.437270341296506,1.4928494339209728,4.28855412343167,1.2418969240087776
10.590929345698019,1.480492355157621,0.7303864241206798,0.33954176168985367,10.236991288759569,1.1427363314871297,11.032505404148903,2.011127368189016,10.682382197112933,1.511814970330788,4.323736612084822,1.248121946136223
10.830612646225589,1.4969971823741024,0.7412842248313122,0.34477365661234044,10.48283596384469,1.1663967384665974,11.03337477998662,2.0119552782897525,10.924954636899267,1.5330565728962087,4.358691368041616,1.2537906239632994
11.073417028429102,1.5143555051904416,0.752225451622074,0.34780332408870474,10.72653129207656,1.1820367349982184,11.034259884198361,2.0214016494967857,11.16702259638876,1.5590385513820857,4.393727787745678,1.2647815984695707
11.311365407007504,1.5307647171670113,0.7633037134108922,0.34980518466274213,10.968533636849799,1.192971227950944,11.035178771152237,2.02622041301194,11.406991186925428,1.5799804253624712,4.428610940232635,1.2728831214470215
11.55110781713055,1.5473372264681666,0.774442347590276,0.35209560552464625,11.209083436786814,1.2068162233490374,11.036140244783027,2.0251149820166896,11.645200521745094,1.597611325880134,4.463240648308861,1.2772677123313032
11.790535429276062,1.5641119621692288,0.785803045958616,0.3541095349572664,11.450077690260096,1.2163339587949065,11.037126428892567,2.028210076104525,11.88298270053975,1.616154399880355,4.497917173783036,1.2842201141709388
12.025394070161042,1.5789705056438754,0.797207301698227,0.353325122986429,11.68858635227012,1.216750689719251,11.038160944465577,2.025447544233042,12.118249743750065,1.634066302492762,4.532253635770837,1.2874987521932078
12.261429209760474,1.5949588814138478,0.8089862254353722,0.3577946239874945,11.929096306793546,1.2353001197487645,11.039220005785513,2.020059260975488,12.35302030046646,1.6420197367646336,4.56665505679424,1.2889416560778313
12.493769282031248,1.6087669374816334,0.8206985875715908,0.3623768260614981,12.165338975189353,1.2580849718748832,11.04031919617372,2.0207735936384257,12.586393803452095,1.6602614454432114,4.600966668479766,1.2942911494262201
12.726567446764514,1.623928966097898,0.8325011087547001,0.3657459415843344,12.399850099231836,1.2731232533636234,11.041456026030017,2.015421898185268,12.81849249806904,1.6694331521283223,4.635182821519358,1.2956764178277405
12.95631557554146,1.6377608088713052,0.8442992993906908,0.3681482597942484,12.631730513380093,1.2859444470615966,11.042634978391966,2.0142957292892376,13.049024376088147,1.6865094394978453,4.669273566545924,1.2997767614895674
13.186734573900278,1.6514823100180422,0.8563275212264188,0.369540711551589,12.864163700902697,1.2908427802019915,11.04384690357004,2.020014484590096,13.278900391785267,1.707547821404421,4.7034239387015155,1.3082425780164144
13.413772989427319,1.6644913852131946,0.8684887537602959,0.37353377393168513,13.095559048991019,1.3085715772512134,11.045105360632975,2.016138793951538,13.506599373476806,1.7191107878760505,4.737331627856786,1.3104803243207017
13.641254686240783,1.6785189780218248,0.8805381395455858,0.37441755924984016,13.323486907965277,1.3158281752780217,11.04640259778398,2.0183087679715244,13.733552537773168,1.7363118783645675,4.771256456283285,1.3166002052590429
13.866902371791507,1.6923585081517176,0.8929880859433524,0.3776008163382523,13.553400520816067,1.3258359720867958,11.047745086730641,2.0125509109347712,13.958931576439198,1.7439413343584544,4.805027237756741,1.3174959914840507
14.090072372538089,1.7043102692613514,0.905414055972744,0.38038743649400164,13.780502280917148,1.3390923801113332,11.049132345352598,2.0180493972181766,14.182924067597082,1.7686579488593221,4.838716722748496,1.325790372465111
14.317280765734175,1.7176716911313485,0.9178373001333838,0.38255128716230563,14.006388227475345,1.3501707058843218,11.050560711467478,2.019084470160894,14.406416746386588,1.7825683352439747,4.872375237679156,1.3310724530713904
14.53940927983187,1.7298230552792975,0.9304703757373595,0.3857041676156078,14.232037060588848,1.3619631774758831,11.052035940073413,2.0189219485095493,14.628615221067275,1.7955977220499202,4.905945860640414,1.3355422378204134
14.758809664293992,1.7412058815665774,0.9429729237678797,0.38487403585575364,14.453876286692424,1.3614115506755649,11.053559930265838,2.0134606437551397,14.848935576651293,1.8042564602309281,4.939334055392321,1.3364761489060062
14.979261268907871,1.7538151364245005,0.9559015583673233,0.39043787158415366,14.678194395978572,1.3815398770211675,11.055130493680133,2.0148330154177194,15.068369782764462,1.821917119746906,4.972681229886214,1.3419200933860127
15.198029367650681,1.7650141667314947,0.9686724347994081,0.3936338416353162,14.898712185092336,1.3965801223656518,11.056744477442901,2.0218966439691752,15.287404315788203,1.8391721453219783,5.006193546335485,1.3510803191934655
15.414034901650433,1.7768063193464536,0.9817342220869234,0.39277983443030917,15.119440303783435,1.388039970613038,11.058410609450364,2.024745008427722,15.504778494679632,1.8527940343977565,5.0395887862957665,1.3574438689775679
15.625407839748144,1.7876798658254696,0.9948185696233967,0.3971515960056502,15.337550719229935,1.4087643848567892,11.060128234584653,2.023025545868892,15.719869743470458,1.8628668560753525,5.072833731707325,1.3607372996152387
15.840984316161343,1.7999044615676107,1.0080371050687669,0.40062714911775044,15.554833125440933,1.420879231105015,11.06189723711094,2.0219302624962143,15.9341723706072,1.87333304957408,5.1060442191943896,1.3644097779284614
16.050167271485172,1.8099503933908831,1.021255384031801,0.4041370631072708,15.769148843371223,1.435320742172937,11.063717847736191,2.0184274261244917,16.14633504231502,1.882996276002316,5.139104734980922,1.366439090575313
16.261506378653525,1.8209376412104281,1.0345094135454116,0.4079706881561682,15.982004817185727,1.4506832188317207,11.065589806157032,2.023874977949296,16.35766226759281,1.9029590712708389,5.17219491995113,1.3745070746859274
16.470372184547887,1.8316023331807039,1.047866477523343,0.40923423882354837,16.193722652256582,1.4532152425514082,11.067513693430307,2.029184197253693,16.567908303027494,1.9171286770137628,5.205346052559254,1.382431173931161
16.673780738761813,1.8401273910573175,1.0612264803765221,0.4122140171447931,16.40264014590927,1.4663928686584928,11.069490618790061,2.0281649960358523,16.775064944765347,1.932195613518747,5.23813770372318,1.3861138813780407
16.881873345949643,1.84974631322034,1.074742453236744,0.4147644084428045,16.611632655774294,1.4740785089371622,11.07151845034799,2.025080161768106,16.981312503409935,1.9413562303742686,5.270870656096593,1.3883009676058786
17.089575134107882,1.8602791965171146,1.0882010287386983,0.4182897369273562,16.819195664913448,1.4895753279788713,11.073600535193046,2.0222854262042564,17.187003034433623,1.9486841356486237,5.303596929154085,1.3906193690518442
17.294903166625065,1.8705244211065026,1.1017993436204478,0.4181827786986282,17.026295871579173,1.485484368753772,11.075738944520381,2.0259443506402395,17.39188002453317,1.964925430132352,5.336320897726273,1.3973673674533786
17.4971491071061,1.8790639788305281,1.1156996839854638,0.423121640936797,17.23405686143007,1.5020059187866193,11.077931688520545,2.0310186263509857,17.595140918881825,1.9840078083558608,5.3689382918308,1.405103994107587
17.692605052218536,1.886679232613724,1.1294169452424798,0.42468569702505404,17.436417703049038,1.5091299015726667,11.080175963837288,2.030712945276044,17.795652359223098,1.9961674644895713,5.4013827093983355,1.4090975499265364
17.890617973190565,1.8944660969433118,1.1432397588058163,0.4256260083048379,17.637576219346865,1.5111442589697317,11.082473044655101,2.028390316631483,17.994485204511456,2.0065503056558103,5.4336888806193775,1.4116569160028472
18.089786626764166,1.9030592928752426,1.1573750824134288,0.43299755602103823,17.839956038381892,1.5371672832404628,11.08483157313863,2.030522636567878,18.19317831715145,2.0144400372522506,5.466188624135209,1.417214410996481
18.292960067703337,1.913590678205438,1.1711833821710236,0.434324613873528,18.03940133810463,1.5438201679452002,11.087243771909492,2.024987131912541,18.390975532285463,2.0209567736175833,5.498376873274993,1.4174644459219605
18.4964460861456,1.9241420335202388,1.1850767596217544,0.4367076667534827,18.23973930143701,1.5525388248157057,11.089716597718777,2.0256297805715637,18.589116732520687,2.0329628748166217,5.530616284100264,1.421979582705135
18.691270318910846,1.9321719868292093,1.1991176605824154,0.4390454134652003,18.43900508079038,1.5587483530809287,11.092249234006598,2.0271733404366774,18.7858690685213,2.04391670938661,5.562847850529598,1.4270932316383085
18.884300354872067,1.939978399642743,1.213161085876266,0.4433360736978606,18.636102020185774,1.5756643557483225,11.094836320553432,2.026149547377043,18.980607107750465,2.0555360987449784,5.594882825191873,1.430412843328445
19.077026910587648,1.948248309677345,1.2273856363063542,0.44427437508388423,18.832548239747478,1.573665726437784,11.097480475693597,2.0243957515633215,19.17394176307291,2.0648563127944115,5.626841762750598,1.4331698897520297
19.266112006356696,1.9555745986163582,1.2416744248666804,0.4421343299609384,19.02721446508228,1.5618998651899954,11.100188263641051,2.0288678415864947,19.36596101673738,2.079321856726926,5.658867068963404,1.440294146058879
19.456600210170855,1.9642221221993197,1.256197907974594,0.4485285223388254,19.22206066530149,1.5865029706996685,11.102946427272457,2.0245611396307446,19.556070623560245,2.0865691289323305,5.690610954823922,1.4411966136529863
19.640579345161154,1.9719067209058552,1.270520840686859,0.4488384536350546,19.41175107459951,1.5869641666705774,11.105756656291414,2.0186165400486167,19.74377886921229,2.093692177032932,5.722174819396246,1.4408916333604762
19.825988903685502,1.9797664711780556,1.2848720966120066,0.4523593500817446,19.599889452295674,1.6013377722826017,11.108641801891904,2.0243591226207145,19.931142391157426,2.106052608729051,5.754028138619273,1.448822952290433
20.009775566812937,1.987754278530794,1.2994699198967277,0.4534046280827272,19.787755939113772,1.5986877882209505,11.111582961095115,2.0308648879229234,20.116631039486414,2.125413947924818,5.78570352631928,1.457366799204119
20.19090526229301,1.994747674087507,1.31405354176834,0.45724983898466526,19.973528935700617,1.61355216761454,11.114578812103959,2.027430236578703,20.30009167758978,2.1287974988495746,5.817233308607689,1.4587319282124258
20.375102623452,2.0038070205511542,1.3285122063354027,0.45845299850068943,20.157323230382694,1.6180606206693533,11.117634625251663,2.0254959313992362,20.48272951468165,2.1363716380182773,5.848686086235206,1.4611530796855072
20.55916433137656,2.011216096875217,1.3433053500932628,0.46240028593390287,20.34277266483826,1.6276206963827937,11.120750918560733,2.0255702372536066,20.664650026135018,2.1471179936874956,5.880075427790244,1.464998739282177
20.738306019380104,2.017526263951703,1.3580059490859802,0.46324447585047795,20.52559771684514,1.6288505366107757,11.123929849783948,2.028157179814751,20.84521474371013,2.1598918738351482,5.911437433718649,1.4706353398162237
20.914867389009096,2.024754262786431,1.3728029696477007,0.4658561503501194,20.706862833599388,1.6369467266294286,11.127163807648497,2.028525756944854,21.023861752160556,2.1711770567457656,5.942649766915089,1.47465781975926
21.09141919398042,2.0313445830466756,1.3877624206655266,0.47185661175312144,20.887350363617873,1.6569545159977745,11.130453835577814,2.023712204183284,21.20099125136482,2.1742155012169277,5.9737402138785365,1.4748633946489833
21.265106242617286,2.0381019822605793,1.4026866386276613,0.47492536424947673,21.065242465952846,1.6653011234532145,11.133817121911234,2.026557741105254,21.377098872388974,2.184368682873765,6.004939991739286,1.4805996018225183
21.435115071906598,2.0448908165902835,1.4174846616126222,0.47510693517072583,21.239789171239305,1.6650608273563317,11.137245065502713,2.028194501701952,21.551320317537016,2.1917443879434164,6.03610893305017,1.485437776089698
21.60470150789755,2.050083204796596,1.4325882624663073,0.4797695994564935,21.414338530962777,1.678229768060737,11.140730131889276,2.026895868057236,21.723641587420314,2.197832139523227,6.06714423230407,1.4881267335364332
21.772085749970014,2.055230177181925,1.44770589117529,0.4842495016170489,21.586646421933615,1.6921118788007081,11.144281679214455,2.029748866926063,21.89434926945903,2.2092156755445678,6.098177026031795,1.493843780890523
21.937103815421786,2.0608439468220516,1.4627819933498905,0.48381752846659226,21.75626942218323,1.6863480389853276,11.147907322520224,2.035628624670969,22.06352688532456,2.220148008254058,6.129294887756008,1.501756819923865
22.109038246324687,2.066254001601183,1.4777567657667678,0.48672472594037947,21.925621369711326,1.6994426447334923,11.151567021555165,2.0299533037519475,22.23134537111268,2.2253082576887215,6.160007637292966,1.5011951554494993
22.275264968585965,2.07046195650378,1.4929680907989913,0.4867823043611561,22.094774270110907,1.6924622117719117,11.155288925403335,2.0305666199876313,22.397975476139436,2.2386698404019345,6.190683772333925,1.5052384934105048
