coupler,coupler,$D^a [mM]$,$D^a [mM]$,$I_{islet}^a\ [pg/islet]$,$I_{islet}^a\ [pg/islet]$,$\gamma^b$,$\gamma^b$,$I_{cell}^b [pg/islet]$,$I_{cell}^b [pg/islet]$,$G^b [mM]$,$G^b [mM]$
2.6971902374049823,1.069479034118772,0.5037721964747762,0.22496950537341107,2.59924308571588,0.4498456129945614,11.000251798668081,3.4378588002539536,2.003146912581331,1.46221994398974,3.205758774742731,1.8527481010472526
2.978122330568985,0.9641818369477972,0.5075179902927529,0.27397547978118464,2.933484166208226,0.5145358111031898,11.002664385808506,2.607445588322837,2.2896343439353353,1.0062933605249125,3.2378363700800286,1.4063748599799897
3.2581651788234245,0.9249542834003429,0.5112857468115377,0.28300992026422306,3.224187262058129,0.546614536925471,11.005442616040234,2.3071022115799016,2.662393165206606,0.8599083407253918,3.277546371788149,1.2477376052850337
3.537609167024911,0.9138620020257574,0.5154983707852098,0.28685628905009813,3.506014072868595,0.5772448880825345,11.007931934255504,2.165776254781783,3.051742618139126,0.8178810668766696,3.319096593688962,1.176128456083007
3.8148712755458836,0.9186716412680782,0.5201421138082968,0.2883149860983692,3.7840482502297017,0.6017748158746895,11.010072766954556,2.0946377646965484,3.432265493158686,0.8266784300205821,3.3606308185452094,1.143282884578574
4.090658007432241,0.932150465100505,0.5251945681954816,0.29065263903363797,4.060177152785153,0.6295628173751857,11.011866546785326,2.0594016985524592,3.79736712420573,0.8575429802875318,3.4016543279628295,1.1303270249588253
4.365283282121014,0.9524422775251732,0.5306295462140982,0.29172915454267495,4.334933557652197,0.6505451495799439,11.013387075451375,2.0398926242408746,4.146284922306313,0.8950564572322962,3.4420397149206523,1.1260989008743245
4.639538895448367,0.9747338516931332,0.5364662973625267,0.29210079596618566,4.609332320488794,0.6676963304480745,11.014720075257555,2.0262100896754967,4.480260126583587,0.9337783736253454,3.481744495836425,1.1251009578035331
4.91260859929835,0.9983493853184019,0.5426701719408381,0.29384413659394804,4.882730108305409,0.6901007843442478,11.015849398992158,2.022432144049034,4.802775093463026,0.9716710783161089,3.521073908463214,1.1294512916036394
5.182971870318627,1.022984890238555,0.5491342569398776,0.29520695723708795,5.153499859309151,0.7112807373438469,11.016890790719666,2.0167160780162523,5.113730721750183,1.0080753346876619,3.559805243759377,1.1327107240512748
5.453130478066131,1.0493306588478628,0.5560512846877708,0.2970814342694101,5.424035542332955,0.7271233136649746,11.01782128888935,2.0178889421269837,5.4161466882836296,1.045340157423531,3.598199654125405,1.1397247728076418
5.722982422005495,1.0762820866102332,0.563206705965388,0.29872015565872484,5.693945461382716,0.7468017402525087,11.018666109788196,2.0158113826389923,5.711492764165096,1.0752489280090818,3.636308939458567,1.144742983247392
5.990378030111626,1.1015889433857622,0.5706749849231715,0.3027445797285534,5.961891981499343,0.772924471952583,11.019459853439265,2.0150707888054757,6.000579680790546,1.105404794363712,3.674134400358325,1.1504572295236992
6.2575330593367,1.1271211288265457,0.5783316041254736,0.30336699871095407,6.228933432028935,0.7847960349774193,11.020202261384494,2.023905840952991,6.284749635348537,1.1418719507270827,3.7117758171157322,1.1616217494002523
6.522738678374352,1.1523730697783194,0.5862660568982113,0.30529896697737147,6.494620098275632,0.80298471461105,11.020929623639969,2.021004581505059,6.56346664445575,1.1678123306561894,3.749040673423382,1.1659749742926948
6.787093213018472,1.1761151084162633,0.5944285825248914,0.3070478512696885,6.759167108121386,0.8191387243698991,11.021627884266325,2.0252987719954985,6.8385777378148145,1.1989986784687765,3.78614660227564,1.174429577023413
7.049228055226501,1.1989871233328748,0.6028735092685127,0.3086345388064947,7.021897498956309,0.8323571391326771,11.022326927748518,2.021330423049757,7.109330179919655,1.2236546876677064,3.8228967058262504,1.17803316701585
7.311808454556295,1.2227120404904899,0.6115330183944022,0.3125632610170832,7.284480382732867,0.8568381636073915,11.023002078146906,2.0190172351045823,7.377719188590392,1.2464686990261375,3.859558771887864,1.1824610761127108
7.57397297207212,1.2459902589886058,0.6203450982444557,0.3147869354182061,7.546485367679229,0.8718350771149774,11.023678560827845,2.01920174074499,7.643632985933474,1.2725581507636095,3.8960205610435548,1.1883274612015997
7.833435599231436,1.2682119162729395,0.6293823141409434,0.3157343658774066,7.806535803039921,0.8810105873681091,11.02434440682432,2.020711745064126,7.907345996099077,1.2972200522021036,3.9323821741943403,1.1948893308101054
8.090047087705214,1.2891075605802456,0.6386999032776783,0.31922777160178617,8.064086453598366,0.9009193946802603,11.025012030822227,2.019562302811944,8.168594263419054,1.3183526675050043,3.9685979938551608,1.1998125239457604
8.346079863831552,1.3101550883640556,0.6480715139476283,0.3211446771348648,8.320143920094132,0.9157788464367813,11.025690725548243,2.023594962330318,8.42762583488148,1.3461114201039615,4.00464313102817,1.2078282817112307
8.599368043248644,1.3306418390204118,0.6576970223288373,0.32190075305305926,8.574109611444394,0.9216303887351631,11.026370828628353,2.01964428587161,8.684463222344304,1.3622604539683187,4.04058153770101,1.2109471397740714
8.854484495286785,1.3507534710977929,0.6675512805134606,0.327376269235634,8.82906964753425,0.9504777632318844,11.027057770192881,2.0183831413887705,8.940356224826191,1.3800480676772608,4.076505467152611,1.2156125884197242
9.107305314889055,1.3704966354974204,0.677456024942368,0.3288214082968099,9.082011321679067,0.9585505100739422,11.027776999150001,2.01993019947481,9.194044717656725,1.4057543158370183,4.112164996071969,1.2220343245258936
9.358443275790757,1.390145713225261,0.687446192874642,0.3293138534421931,9.333445016667369,0.9670311960616229,11.028502520467589,2.019684460897366,9.44620485230688,1.425449642265288,4.147763220136019,1.227261739980729
9.606907290670243,1.4089942986570945,0.6978117823257189,0.3331623319530953,9.582864221945643,0.9838344490064073,11.029254619388363,2.0154712306380755,9.696212155217369,1.442629811181558,4.18315468014954,1.2300411060625296
9.854020999037166,1.427616451033727,0.7081339981542386,0.3354761326772522,9.830161847699221,0.9992773540729614,11.030020786745556,2.016063670215555,9.944823575615885,1.4633135312822423,4.218503004045356,1.2356912807042604
10.100296743034173,1.4448638912822214,0.7185520820685518,0.33644295281661585,10.076481997523645,1.006841393250579,11.030809283811477,2.0109862464364325,10.191819300315318,1.4765446713942694,4.253735674566966,1.2377819187695092
10.347034359572051,1.4632221419333682,0.7291577619347183,0.3374404495480503,10.323146260951196,1.0136608293484177,11.031626544690578,2.009942416001624,10.437626971987779,1.4961000581535964,4.288846077042911,1.2423444348013855
10.590929345698028,1.480492355157621,0.7400779478424302,0.34204581395892325,10.567899409658404,1.0334347349339765,11.032461092965242,2.013476124059957,10.682286452139005,1.5176826727849269,4.3239518119777705,1.2496812922809015
10.83061264622556,1.4969971823741024,0.750913569163777,0.3439792481610668,10.808359660210446,1.045384378771481,11.033316297034002,2.0236711344511313,10.925264086693803,1.5448813983944703,4.359045594414574,1.2611598623847478
11.073417028429088,1.5143555051904416,0.7620215923011083,0.3468139892659765,11.050731257925484,1.0556960443318026,11.03421879882219,2.01684090334818,11.165962661996467,1.5569447955609552,4.393763637400639,1.262016782194202
11.311365407007502,1.5307647171670113,0.7731450325426755,0.3501055084300199,11.28953132937499,1.0734958172159537,11.035138642769635,2.0244885324200275,11.405839534783103,1.5823114288088362,4.4285832278051895,1.2718833184051157
11.551107817130568,1.5473372264681666,0.7844939892658345,0.35284924379479543,11.529066109195773,1.0818848605929121,11.036098524335248,2.021135653519604,11.643932137211904,1.596317456023526,4.4631578412720865,1.2748085370577777
11.790535429276034,1.5641119621692288,0.7959554416104699,0.354760616648901,11.768508345279173,1.089895960319912,11.037084759911428,2.0218361069983852,11.88168866533997,1.6119795633198675,4.497781287532605,1.2802110484677183
12.025394070161031,1.5789705056438754,0.8074740926604497,0.3584742517711554,12.004307049573391,1.1093569326192008,11.038108325154159,2.020471488108779,12.117822714198306,1.6262040217279465,4.532295998678363,1.2842834494377051
12.261429209760461,1.5949588814138478,0.8192743190052567,0.36163341236057234,12.240359657596946,1.1166118026996248,11.039168150104079,2.020908551879761,12.35298390675811,1.642599018683654,4.566752199709146,1.2894741556846037
12.493769282031291,1.6087669374816334,0.8309598589519378,0.3622618253895684,12.473294780408423,1.1231763330499895,11.040265581564196,2.016531024045253,12.586549047861183,1.6525536890219563,4.601115799434752,1.2915314626566772
12.726567446764536,1.623928966097898,0.8429533897918898,0.36569074791667155,12.70628121813311,1.1356966450381778,11.041402768870693,2.016430478395693,12.819036398511182,1.6689857975205817,4.635413486307335,1.2963151830901614
12.956315575541433,1.6377608088713052,0.8549271049960341,0.36771780233873164,12.936567618375902,1.1454480132397873,11.042584227216956,2.019908799680244,13.049440377889079,1.6936976525279406,4.6694877947188935,1.3034420495891212
13.186734573900273,1.6514823100180422,0.8671470199892027,0.372998154506143,13.167046354744881,1.1657369790319692,11.043799719623271,2.0214078645386664,13.278680565372516,1.7113429266794256,4.703505357081636,1.3092070287901614
13.413772989427347,1.6644913852131946,0.8792547575813853,0.3748747985570487,13.394532078181943,1.173763627282314,11.045049133151416,2.020546920431406,13.507039966801633,1.7201024564061205,4.737608390877924,1.3133323721345456
13.641254686240755,1.6785189780218248,0.8917492962153909,0.37728523874948006,13.622288075516677,1.1759177735963824,11.04634697276995,2.0230218208049267,13.734193487043953,1.737627263690614,4.7715940890798425,1.3196704529037244
13.866902371791467,1.6923585081517176,0.9041180414096782,0.38043922421908205,13.848203470893418,1.1947776266995813,11.047692680635768,2.0221577696900677,13.959454591655302,1.7544623392652943,4.805347009599201,1.3238402688922053
14.090072372538064,1.7043102692613514,0.9165566745203065,0.3824394634405503,14.071805871694608,1.20155622246078,11.049078890968387,2.013647626186481,14.18330065083936,1.757707770338273,4.8390443107733665,1.3228765007883012
14.3172807657342,1.7176716911313485,0.9290926287204736,0.3845316078157648,14.298132991784849,1.2095049171934786,11.050508607165945,2.0197255502503264,14.407429407350621,1.7785205488591098,4.872850253438928,1.3314851949122268
14.53940927983187,1.7298230552792975,0.9417079284346421,0.384317641677802,14.521156133927217,1.2065401797535296,11.05198392974637,2.024961610332786,14.630207366917016,1.796548103450322,4.906607407564559,1.3395321262122115
14.758809664293983,1.7412058815665774,0.9545621677114806,0.3883730185460731,14.74154517491969,1.2235983907776988,11.053511293569121,2.023690059735937,14.850549294136055,1.8122413884995936,4.940056071956154,1.3433119628579089
14.979261268907921,1.7538151364245005,0.9674669334385514,0.3924627052127024,14.961827624826814,1.2385399952833838,11.055084057578918,2.0253872327522737,15.069707820253388,1.831233031314109,4.97340591666425,1.3490247685058334
15.198029367650703,1.7650141667314947,0.9804825736074132,0.39541681929963785,15.18088949127985,1.2459876790287612,11.056701401996774,2.0237287226527636,15.287882377388787,1.8410308008949927,5.006745203186703,1.3524070316056798
15.414034901650444,1.7768063193464536,0.9935445907974751,0.3974400369189764,15.397529454211114,1.2523870935775603,11.058368204138622,2.026209428992862,15.504837857598828,1.856838940043931,5.0400493693769866,1.3585440851789703
15.6254078397481,1.7876798658254696,1.0066636264465765,0.40011090897112084,15.610034344496084,1.2631763984733249,11.060083966180397,2.0220308046989452,15.719803280726474,1.862001614707696,5.073284691138122,1.3601513624771717
15.840984316161357,1.7999044615676107,1.0198055886586308,0.40171408854588087,15.824745989391817,1.2683818221547067,11.061852539469106,2.0273986953612884,15.934084200016612,1.8825070074082049,5.106489383985016,1.3682070676127323
16.050167271485204,1.8099503933908831,1.0331397919108563,0.40548524860281804,16.035260350407274,1.2812374482799243,11.063670538181627,2.026322690843908,16.14665628682827,1.8888968721608335,5.1397036941967515,1.3718320681598526
16.261506378653564,1.8209376412104281,1.0463397354383777,0.40431408752566905,16.246114202684254,1.2750126717118981,11.06554362150105,2.026576229107634,16.35755611389718,1.9053753786638767,5.1726804427423065,1.376419293820851
16.470372184547863,1.8316023331807039,1.0599137615764205,0.411026366892623,16.45570589724612,1.301669306445459,11.067466656528369,2.028539674313999,16.567054112664163,1.9216924540221674,5.205604758857133,1.3821213916136987
16.673780738761852,1.8401273910573175,1.0733490666938819,0.41479400366605973,16.66019775695423,1.3144765849156763,11.069440520319523,2.024708225422641,16.774475444122714,1.9270424785430187,5.238471410733332,1.3837982881293587
16.881873345949707,1.84974631322034,1.0866943687422932,0.4147712182322237,16.86721105756759,1.312280776621517,11.071469706308848,2.027005511255824,16.98123538863456,1.9419703027643478,5.271318658169839,1.389657948625099
17.0895751341079,1.8602791965171146,1.100291002921189,0.41802498611726296,17.074890214339426,1.3229981797174706,11.073552823553962,2.029139993149829,17.187015838743427,1.957212780657109,5.304065327448659,1.395399689996412
17.294903166625083,1.8705244211065026,1.1139632582305887,0.4236224679632159,17.28069066835093,1.344445054346389,11.075690264281562,2.0275503075178505,17.39172237610224,1.9651537063272277,5.336758636243826,1.3985266005556878
17.497149107106043,1.8790639788305281,1.1275692533032462,0.42551420768032394,17.483511548973297,1.347695526396592,11.077884923620035,2.0309668850909004,17.595287044681175,1.9796401305035127,5.369457957933346,1.4050920847052855
17.692605052218543,1.886679232613724,1.1413548071254107,0.42833412764006235,17.68074251003464,1.3545096017584697,11.080132211086447,2.03004949617842,17.795989660991758,1.9917793280574563,5.401945595013658,1.4086689689230099
17.89061797319062,1.8944660969433118,1.1551389381597812,0.4303731821043417,17.87845863522345,1.3607792069897482,11.082435672658875,2.0346291866706605,17.995434791778155,2.009089013018901,5.4344426697070265,1.416026656354357
18.08978662676416,1.9030592928752426,1.1690832229148078,0.4336561289638056,18.077302505292938,1.369913737495161,11.0847910388014,2.0331466287374327,18.193287513289793,2.020896495079446,5.4667143510929135,1.4191626665129453
18.29296006770329,1.913590678205438,1.1829098843410335,0.43574978281761534,18.279236817685856,1.3790155053434432,11.087200105473256,2.026021040674185,18.390793193882548,2.024549182544721,5.498849808989737,1.4182909700180977
18.496446086145603,1.9241420335202388,1.1969454469761152,0.4365357366560978,18.482393126657428,1.3746277155685351,11.089667419957022,2.0232928744736367,18.588473370913622,2.034101696908039,5.530956883573497,1.4204470059576362
18.691270318910842,1.9321719868292093,1.2110706105931104,0.437696336775613,18.67917259388386,1.377401367190136,11.09219915446743,2.025739391279233,18.785376238163177,2.043289717354513,5.5632268170797206,1.4261545815514474
18.88430035487212,1.939978399642743,1.2253343151663207,0.4415498571542518,18.873065866692237,1.3911840540230174,11.094789220872656,2.0257488326190005,18.9804974477944,2.052562720885995,5.595366006277869,1.4301654869162086
19.07702691058761,1.948248309677345,1.2396436268075954,0.44459691255650624,19.065947726681785,1.3988348270860766,11.097435689803966,2.0247851762757274,19.173996432732565,2.0634294439367276,5.627359399476435,1.433489298246004
19.26611200635668,1.9555745986163582,1.2541948207359515,0.4463577901229422,19.256000107678016,1.395654594657597,11.100145022087805,2.031701694163722,19.366077529350775,2.0824571827561176,5.659401618027947,1.4423682378957048
19.456600210170876,1.9642221221993197,1.2685285844036494,0.4486666397789999,19.446161740778464,1.410376357987335,11.102916353770704,2.0291038581086793,19.557030499239044,2.0823406057102885,5.691435653054742,1.4444204769297613
19.64057934516116,1.9719067209058552,1.2830431295209945,0.4507037023646252,19.631510056182254,1.4118433744433205,11.105744948490427,2.0271964067989625,19.745620036424434,2.0909007865318174,5.723295402773894,1.4469965456291658
19.825988903685502,1.9797664711780556,1.2974974039983782,0.454847240446667,19.816773100988744,1.4303538672388343,11.108629683105232,2.024435293420187,19.93247020285476,2.0997523997484007,5.755022766453731,1.4489381625357916
20.00977556681294,1.987754278530794,1.3121187893541926,0.45737756461358325,20.000849108209064,1.4310797026368147,11.111573408490667,2.0252039456353397,20.11779206961242,2.1131692529200543,5.786687960321223,1.4533763434585178
20.19090526229294,1.994747674087507,1.3266203360268496,0.45852001793185004,20.182504943690606,1.435655779257937,11.114572243490311,2.0213993462693196,20.301167307876685,2.1191046594149485,5.818222980962711,1.4544867536169261
20.375102623452104,2.0038070205511542,1.3413945536850371,0.4630958046073753,20.36619018452509,1.448170900284277,11.117633712207153,2.024819617347792,20.483863374094515,2.135247777482304,5.849744032782836,1.4607769036071547
20.55916433137654,2.011216096875217,1.3560788171632054,0.4672038792791875,20.549978742150316,1.462799526146907,11.120751571137479,2.0216623243296445,20.665597666784183,2.1402028557354775,5.881144479784012,1.4622773000203642
20.73830601938004,2.017526263951703,1.3707082338479704,0.46876140600219707,20.730005885712636,1.4650493871181853,11.123939202038741,2.02508258061626,20.846361784125868,2.1516939731370455,5.912621896480177,1.4684960667838125
20.91486738900906,2.024754262786431,1.3854194518955976,0.469726419259991,20.90733220894664,1.4645560136701103,11.127180788702153,2.025527761991324,21.025107404263743,2.1627993717427936,5.94391517562383,1.472574193350313
21.091419193980474,2.0313445830466756,1.4004008472763914,0.4742553720709219,21.084174173177832,1.4766687777208114,11.130487566965973,2.0297511615863204,21.202679053731956,2.1769814012788764,5.975211144755114,1.4793702386436376
21.265106242617303,2.0381019822605793,1.415131318833359,0.4763001431194359,21.258291173876295,1.4857484644519208,11.133846231165736,2.027595651146087,21.378231252669906,2.1840494724410497,6.006313317301632,1.4815067336716194
21.435115071906626,2.0448908165902835,1.429882265204962,0.47752937453409033,21.429117199456563,1.4874194923649509,11.137268152566989,2.0275780033754844,21.5519765991783,2.192743144460426,6.037389181423717,1.4851628492198965
21.604701507897545,2.050083204796596,1.4448691647083942,0.4834416437131605,21.59905972633203,1.5064096579052102,11.140746066445892,2.0280434566734136,21.723872701105122,2.2042961717408507,6.068337435858863,1.4891662158495989
21.772085749970024,2.055230177181925,1.4599392661267374,0.4847502231167106,21.766965304933006,1.4995491376801282,11.144277822116834,2.022245286778486,21.893787239205338,2.205770542772069,6.099146204142086,1.4885182758429991
21.937103815421803,2.0608439468220516,1.4749447983757298,0.48572910041108613,21.932575752855843,1.5029429754088224,11.147883779159637,2.0282104047609684,22.062391666330218,2.221955226101459,6.130056369207085,1.496498433656061
22.10903824632468,2.066254001601183,1.490020465286117,0.4879946760160027,22.102965140080876,1.5094805408669103,11.15155558218572,2.0295036483333844,22.230729907545278,2.2271124835497442,6.16095350790977,1.5009961659869095
22.27526496858594,2.07046195650378,1.5049721124412416,0.48962936655696704,22.269946083411295,1.5166165341327655,11.155275212404353,2.0272830915772078,22.397363630884225,2.2345576698611533,6.191616717919036,1.502921945866922
