coupler,coupler,$D^a [mM]$,$D^a [mM]$,$I_{islet}^a\ [pg/islet]$,$I_{islet}^a\ [pg/islet]$,$\gamma^b$,$\gamma^b$,$I_{cell}^b [pg/islet]$,$I_{cell}^b [pg/islet]$,$G^b [mM]$,$G^b [mM]$
2.697190237404853,1.069479034118772,0.5037707129982095,0.2234820996911049,2.305195128984905,0.447138277604856,11.00048575892013,3.4860809414272054,2.0610423471025348,1.4218920611790435,3.206599882165768,1.8786886702049777
2.978122330568975,0.9641818369477972,0.5066381259020254,0.273787733297236,2.49894576871051,0.5571045089195642,11.002072160208263,2.6119984792268514,2.8353355834711724,0.5308117975498993,3.2354355506195405,1.409257218484497
3.2581651788234267,0.9249542834003429,0.509424535335831,0.2838497045775132,2.6763043472399564,0.5990294341740506,11.002341588792921,2.3023204196400178,3.2431173723841495,0.5407587278262627,3.2669624931268157,1.2455646919437973
3.537609167024889,0.9138620020257574,0.5125133610311489,0.2858282596229448,2.8593114903158305,0.6231696647112739,11.00235823594212,2.162690864882942,3.5484514456621823,0.5804909762288591,3.300261405982347,1.1743374608676953
3.814871275545857,0.9186716412680782,0.5159649766635405,0.28806578742243394,3.050931297932918,0.6479927981713545,11.002302539267596,2.0912034672032216,3.8310613682380996,0.6028316483926124,3.3345959119778343,1.140385205515635
4.09065800743219,0.932150465100505,0.5197263863413126,0.2887367911924251,3.248401249296292,0.6696194252148066,11.002232524228008,2.0515261793004673,4.107919504750071,0.6256426705339501,3.3693215839341484,1.1240167750180223
4.365283282120957,0.9524422775251732,0.5238578661415115,0.29121533497822183,3.453887393508749,0.6949297662587717,11.002142121507108,2.0394563883897696,4.382703294852533,0.6539699128639548,3.404435002362849,1.1229081500442546
4.639538895448328,0.9747338516931332,0.5283900770535732,0.29128599345524353,3.6680445911672255,0.7128486338327056,11.002063748707977,2.033913492331004,4.656724662859475,0.679212010162571,3.4394748118722935,1.1255529950248246
4.912608599298328,0.9983493853184019,0.5332629517660156,0.29019240997733564,3.8881045986410996,0.7285117950128568,11.001994076552547,2.027098832454473,4.929660293609537,0.6969087833273394,3.474426628337344,1.127507473494499
5.182971870318581,1.022984890238555,0.5385204275256341,0.2919258229045697,4.114745668157361,0.7513507029022072,11.001930490200102,2.02282120519406,5.2002446465727035,0.7167227179661393,3.5093291603615095,1.130853677358313
5.453130478066094,1.0493306588478628,0.5440392985401573,0.2942351528063301,4.343449979538862,0.7764339309045138,11.001871094283237,2.0190854332934673,5.470188523802561,0.7326231217275214,3.5442437757196337,1.1344373048972354
5.722982422005458,1.0762820866102332,0.5499027794758166,0.2962524653926576,4.5768731489885095,0.7990051301224097,11.001821041729286,2.0212307832087975,5.739765491054484,0.7557557434613917,3.5791490169381133,1.1413265537560822
5.990378030111631,1.1015889433857622,0.5560969145891155,0.2984462914460325,4.8144183481566944,0.8217154088444032,11.001792089248854,2.0258563428710326,6.007274843460331,0.7820187565786564,3.6138634745157456,1.149668457534058
6.257533059336652,1.1271211288265457,0.5624628834542187,0.2991176436755731,5.0512809368863305,0.8410492437510309,11.001777580942424,2.024569635494644,6.274176454666688,0.7948352960320612,3.6484767712916626,1.1545733725890985
6.522738678374349,1.1523730697783194,0.5692487315573345,0.30087437563915354,5.294524210645516,0.8607006633729828,11.001780999267334,2.016415224222957,6.539432833120397,0.8026351712321853,3.6829917176074485,1.1554617835547754
6.787093213018479,1.1761151084162633,0.5763353868902277,0.3036371874946741,5.540670355758136,0.8839220534842076,11.001810992691645,2.009943728348118,6.8036722571211845,0.8220266433308572,3.717320993492799,1.1572951154447118
7.04922805522655,1.1989871233328748,0.5835631047188586,0.3055551607793755,5.784944792808562,0.9055609453005677,11.0018513077429,2.0116935867797587,7.065933660491526,0.8439738002818864,3.7517004426633145,1.1637861021671867
7.311808454556253,1.2227120404904899,0.5910523357273959,0.3074120128927151,6.030837531192826,0.9253672928697828,11.001898203492942,2.0101502306649977,7.3281627915167515,0.8475886763509427,3.786262499747037,1.1682254969296324
7.573972972072105,1.2459902589886058,0.5987701361440042,0.3085983423297303,6.277800181758026,0.9425468026437239,11.001976149629005,2.015030819917183,7.5900613853627705,0.8735916394867231,3.820714319065581,1.1764887342984172
7.83343559923136,1.2682119162729395,0.6067932652950421,0.30939584066018194,6.527557810414907,0.9571916466556635,11.002081551108743,2.014891491637979,7.849691309619682,0.8856646455620404,3.855044138498417,1.1817935448083041
8.09004708770519,1.2891075605802456,0.6150516643409347,0.31192952743892305,6.778124035102579,0.9779520228408014,11.002206358320192,2.0237606657905043,8.106636101998461,0.9104002439528432,3.889430525602476,1.1923800820957413
8.346079863831523,1.3101550883640556,0.6235738936976731,0.31458611216808197,7.029929808999156,0.9980481382891763,11.002369943174267,2.023290382332172,8.362515659097642,0.922621156662328,3.9235312138219203,1.1974818320555545
8.599368043248644,1.3306418390204118,0.6322492178015956,0.3161782268936552,7.280323774665184,1.014905731270316,11.002569687740564,2.016770554269627,8.616015803252466,0.9342971751433449,3.957366630729836,1.1989579098725065
8.854484495286833,1.3507534710977929,0.6410803653287958,0.3196748097392407,7.529805880044604,1.038281747970415,11.002790787462699,2.0141748271385573,8.87052009155049,0.9471200126822804,3.9912622039359786,1.2026429887505803
9.107305314889095,1.3704966354974204,0.650161879539547,0.3215694964238049,7.7803365786281775,1.0541193788720877,11.003034325721293,2.012212219907243,9.123405391872087,0.9541047452932718,4.025268459999665,1.2066027644358672
9.358443275790755,1.390145713225261,0.6593531357842418,0.321437691392161,8.02913176611963,1.0637009850378247,11.003312022783954,2.0139143217895206,9.37461446413874,0.9723217835843652,4.059223469014595,1.212779275178619
9.606907290670232,1.4089942986570945,0.6687793565682397,0.3236376404184854,8.278717801508945,1.0807106578429977,11.003620679322204,2.018475735885771,9.62333741403255,0.9891357138206696,4.093178459516067,1.2206672812465154
9.854020999037155,1.427616451033727,0.6785157659669044,0.32944249734731834,8.530448451440636,1.1091740673344457,11.003963858412032,2.0181932060891827,9.870479048188995,0.9955965376107557,4.127082641895505,1.2255888096517167
10.100296743034228,1.4448638912822214,0.6882502384832674,0.3311195953184057,8.777863940809771,1.1239352117421157,11.004350364089332,2.019173118791203,10.116630136201787,1.0167470843657784,4.160766170113306,1.231326751563588
10.347034359572032,1.4632221419333682,0.6981594763520015,0.33247383358130894,9.025066741682028,1.136643296299239,11.00476756563132,2.0221025291859744,10.362948707655002,1.029465892128209,4.194492684229282,1.2381780953796744
10.590929345698013,1.480492355157621,0.7082485722271417,0.33541036941532126,9.272086831468183,1.154830977187036,11.005220221365587,2.0279371746452144,10.607049520568477,1.0463867444497068,4.228214209008778,1.246799058012814
10.830612646225601,1.4969971823741024,0.7185049281527817,0.33811177626734634,9.518274584220672,1.171477834514263,11.005718127493619,2.0223310068792135,10.847310875834813,1.0495862692161484,4.261663400783471,1.2483712685938981
11.073417028429109,1.5143555051904416,0.7289664883246281,0.34280591316666337,9.764901407293745,1.1949863543401258,11.006249421795316,2.0223681083425684,11.089334301135878,1.0614408931695187,4.295224820581292,1.2533405604648804
11.311365407007504,1.5307647171670113,0.7393803311582577,0.34515015186330483,10.00680298885956,1.211025980937936,11.0068260020983,2.013145139617371,11.327802629686015,1.0619766099773558,4.328579475935944,1.252533074174368
11.551107817130543,1.5473372264681666,0.749968377185153,0.3453566853586033,10.248680153071533,1.21728080565633,11.007439783717116,2.017991891389806,11.56702060173588,1.0884635077803202,4.362024751097738,1.260460156214633
11.790535429276076,1.5641119621692288,0.7607714503772219,0.3473909117239389,10.49162370099159,1.2301952574096062,11.008098553239122,2.0150715562274173,11.806078153036456,1.0934588987715474,4.395290909391108,1.2635072886477665
12.025394070161045,1.5789705056438754,0.771759459849819,0.35067463927135994,10.734447436092431,1.2474673091949153,11.008797526722555,2.016620207058821,12.041515075711127,1.1083788038959737,4.428566444263517,1.2693138939639617
12.261429209760479,1.5949588814138478,0.7828847783330872,0.35295130121017754,10.97646485629928,1.2606162686057611,11.009541890422295,2.0224923951024216,12.277124550194673,1.1322649772354203,4.461709368992914,1.277874290163634
12.493769282031229,1.6087669374816334,0.7940350001813751,0.35486603349826834,11.215578177942813,1.273363561144341,11.010328240311008,2.0150164536338537,12.509823037279686,1.1202433001466723,4.494797071960509,1.2778745477838922
12.726567446764504,1.623928966097898,0.8053026321145367,0.35781892393791337,11.453597613941637,1.2893078630829944,11.011159995127475,2.0131356122778308,12.742350747534243,1.1334761522348604,4.5279036015775365,1.2813949060856777
12.956315575541472,1.6377608088713052,0.8167241106153964,0.36018446408332877,11.691036002142116,1.3019718051205695,11.012038798925378,2.0145803499052035,12.97236651020059,1.1504046852590561,4.560936713380618,1.287035402147416
13.18673457390028,1.6514823100180422,0.8283155052007029,0.3627403437553573,11.92846646281403,1.3150154714946438,11.012963320347891,2.015845366219326,13.20240967353457,1.1591840993497289,4.5939605607254625,1.292519185246368
13.413772989427306,1.6644913852131946,0.8400327953094401,0.36596148736130496,12.164867855502202,1.3307848115557397,11.01393758381304,2.021553061233093,13.42975941945307,1.1859439423324647,4.626783108018691,1.3009113693355856
13.641254686240796,1.6785189780218248,0.8517247251996869,0.36611809327647543,12.39796169784169,1.33539687293685,11.01495808569085,2.0170865180766,13.656897764310253,1.1825818103724994,4.6594736709860305,1.3026682326350303
13.866902371791527,1.6923585081517176,0.8638095879480389,0.37149840245109034,12.634469321812874,1.3577448795563571,11.016026034448238,2.025906806455362,13.882586881972106,1.2136678648318713,4.692175376210821,1.3130169235531715
14.090072372538101,1.7043102692613514,0.8757935898505833,0.37247131865505867,12.86631296108525,1.364940852946508,11.017140885654658,2.0282660823647567,14.105966561600399,1.2116588348541995,4.724909365735046,1.3190986356649845
14.317280765734163,1.7176716911313485,0.8879779170328256,0.37600917880766244,13.098883241981886,1.3810220670288729,11.018307931528044,2.0218532784289547,14.332129157519947,1.2040569553947866,4.757579574415448,1.3194251472222789
14.539409279831872,1.7298230552792975,0.9002787684882491,0.3780112149483331,13.330380361217552,1.3906368571859162,11.019528633893742,2.021325285434875,14.554808089185881,1.2240369320023525,4.79014555286862,1.3236181504061841
14.758809664293995,1.7412058815665774,0.9128196353425164,0.38253184576991867,13.562560846813312,1.409423812249846,11.020800299502975,2.0236411063595448,14.774575979098694,1.2383987491650996,4.822677483754915,1.3296473419965014
14.979261268907845,1.7538151364245005,0.925153340756298,0.385171504647176,13.788950422347202,1.4237216352463842,11.022123727144486,2.0254148494043043,14.994604306879685,1.244845675089976,4.855216709052363,1.3352764321925075
15.198029367650669,1.7650141667314947,0.9376440513485743,0.3880288291544266,14.014968571603312,1.4364127865225564,11.02350062269254,2.019216574242364,15.213343734055496,1.240376380155673,4.887641469983109,1.335605891629454
15.414034901650428,1.7768063193464536,0.9501573115974107,0.3868098054302918,14.238798509273595,1.4332643354150914,11.024931736177926,2.0197706450899786,15.429633838812878,1.2606555458503987,4.919993975749308,1.3404081334280191
15.625407839748165,1.7876798658254696,0.962959516524043,0.3900280566977742,14.464045186644864,1.4466434143982188,11.026415205163282,2.0194861975773013,15.641705970414803,1.2691887713048124,4.952271614445206,1.344616222593895
15.840984316161336,1.7999044615676107,0.9757106218214429,0.3922170856832251,14.686215011872259,1.4573499686652338,11.027952767717533,2.0211015671496075,15.856293279870588,1.2784352441014115,4.984560616977946,1.350048228988428
16.050167271485158,1.8099503933908831,0.9887350709953098,0.395796424832032,14.909282048985983,1.471127381058163,11.02954368360449,2.018544314693531,16.066281477525745,1.2851004633569683,5.016669404177341,1.3526861089174655
16.261506378653507,1.8209376412104281,1.0018416212861587,0.40091324359259634,15.131027017285406,1.4919046566348508,11.03119064354363,2.019416046696846,16.277078115011648,1.291888364791456,5.048865784227578,1.357553937378325
16.4703721845479,1.8316023331807039,1.0149243920913973,0.40212622124712233,15.349763028153397,1.49739265323354,11.032893715042945,2.0210257971457266,16.486054697331824,1.3038455267291802,5.080978317264973,1.3629233479641105
16.673780738761792,1.8401273910573175,1.028121958359396,0.40786115064521,15.567193934032744,1.5209868431100455,11.034651429810955,2.016159584273194,16.690305723659897,1.3009975719561206,5.11298161831561,1.3638796470594445
16.88187334594961,1.84974631322034,1.041305015916316,0.41064538519131794,15.782097551097443,1.5323550768932452,11.03646731480023,2.0157186750189107,16.897354754159874,1.3109080051467854,5.145017174463225,1.367791987834503
17.08957513410787,1.8602791965171146,1.054531481128684,0.40849967079514604,15.99562796000665,1.5238298002889077,11.038342529856083,2.015245734534259,17.10464559477776,1.3152891137510527,5.177056158481798,1.3716488708928285
17.294903166625055,1.8705244211065026,1.0679917879716505,0.41150874672722776,16.210292761572273,1.5357737710711603,11.040276606512418,2.018773633741344,17.310094826598846,1.3327411994264005,5.209026802845287,1.3782470784423375
17.49714910710613,1.8790639788305281,1.0815584403596794,0.41436874691966236,16.42385559071946,1.5466584956635825,11.042265492399933,2.017509655123759,17.51269170036373,1.3385987871991536,5.240820281314516,1.381563722159611
17.692605052218532,1.886679232613724,1.0951574638077122,0.41535894655360606,16.63487518733442,1.5504541610590603,11.044313595222636,2.025925451411511,17.709329486867926,1.3632051866077612,5.272641575298943,1.391499815214098
17.89061797319054,1.8944660969433118,1.1087353698388267,0.41709969725391144,16.843254201216418,1.558263404976303,11.04642004904906,2.030982166173771,17.906774504601227,1.3658357488788322,5.304462983529885,1.3990927837670368
18.089786626764166,1.9030592928752426,1.1225855648196805,0.42627271953183354,17.052791163891104,1.5934553766756605,11.04858107908908,2.0250345072297686,18.105311284182783,1.3579215731364778,5.336092464532587,1.3990832940960403
18.292960067703362,1.913590678205438,1.1361626608859776,0.42736130432138186,17.25728819171095,1.5981058618503927,11.050797074469653,2.0158211922357996,18.307265827891296,1.361166439262122,5.367523832622759,1.396789388963871
18.4964460861456,1.9241420335202388,1.1499710208172416,0.42841568031155236,17.46338746155401,1.6005683051768176,11.053082012125433,2.0192209755540254,18.51018322218384,1.379242606758512,5.399129022690477,1.4031673816312584
18.691270318910846,1.9321719868292093,1.1639563084033697,0.43074237224999273,17.66959809708724,1.6082927836747438,11.055424775384253,2.0220533958433538,18.706356553087097,1.3936690854832618,5.430574390516842,1.4091718162202838
18.88430035487204,1.939978399642743,1.1778768532127026,0.4347599403189431,17.872833603266823,1.6246711216048846,11.057821647221457,2.020011715341223,18.89973274737762,1.3983493413651422,5.461838278902886,1.4117561534983958
19.077026910587666,1.948248309677345,1.1919448996447277,0.4351463498809633,18.075569918761683,1.6240750584126165,11.06028569331349,2.0226838591676537,19.09233379569898,1.4047258794744961,5.493224473139683,1.4175626867887017
19.266112006356703,1.9555745986163582,1.2060255437279226,0.4385834995103588,18.276324462173587,1.6376535909083336,11.062810934629306,2.0259124416742567,19.281860402010135,1.41510156939453,5.524547472385162,1.423764991697197
19.456600210170844,1.9642221221993197,1.220243166593557,0.44312490576781355,18.47653637290902,1.653925399917086,11.065390326696253,2.0204721475260325,19.47186480697803,1.4109990552000546,5.555677144210406,1.4238541806542995
19.640579345161147,1.9719067209058552,1.2344129551567944,0.4446931497448233,18.673696293857102,1.659122307594303,11.068036849622137,2.026110288282357,19.656814003884925,1.4334961309526166,5.5868710957238505,1.4317309224324488
19.825988903685502,1.9797664711780556,1.2486204885079684,0.4484406841686513,18.869225870423712,1.673264711511684,11.070736061376603,2.021302917770657,19.84183134663318,1.4268961028342166,5.617870511927812,1.4321987046092466
20.009775566812934,1.987754278530794,1.2630146340588337,0.44849179872160716,19.064654791732348,1.6703684383309134,11.073504732464432,2.0234840145388415,20.025619497431055,1.4374163705392116,5.64896853704195,1.4375696883368927
20.190905262293047,1.994747674087507,1.277411387279918,0.45137296032290014,19.258068448167894,1.6812378090946887,11.076333386833861,2.0193405869555066,20.20701111075741,1.4313285627450032,5.679977440301837,1.4384168813586347
20.375102623451948,2.0038070205511542,1.2917620051395164,0.4548086721846202,19.44914556023086,1.6943131440671144,11.079228161678644,2.0238038785556407,20.390380608103396,1.4521905171925185,5.710993221630041,1.4454017930777565
20.55916433137657,2.011216096875217,1.3061165713135878,0.45764127670656857,19.638650306932547,1.7042617364207548,11.082171827374557,2.019290270904596,20.573999406149074,1.4526673153236116,5.741738556568024,1.4459740337052567
20.738306019380136,2.017526263951703,1.3206999454546444,0.4613412813495533,19.828684310268972,1.715636261179206,11.085194107101172,2.0242843743748518,20.753804986078546,1.4635360167636189,5.772681036496436,1.4532808718170687
20.914867389009114,2.024754262786431,1.3352987354340924,0.46274533918431415,20.01688003439899,1.7190135686399093,11.088274489159659,2.02925193923927,20.93074655950278,1.4779664994123285,5.8034908225350055,1.4606013538399978
21.091419193980393,2.0313445830466756,1.3498456998474249,0.46311620964391087,20.20269377897206,1.7196234923766216,11.091406589924974,2.0276888748012953,21.107090684197164,1.4798125699834168,5.834104737469643,1.4632110156937879
21.265106242617275,2.0381019822605793,1.3645246183634216,0.46457028876208584,20.387840398901186,1.7233610023717965,11.094609297661174,2.024684830903701,21.281061881429338,1.4723803320907527,5.864786964719772,1.4646970864456328
21.43511507190658,2.0448908165902835,1.379369409175418,0.4689287886349184,20.572414103893394,1.7379098367459376,11.09787089225198,2.0259556403700287,21.45161292030905,1.4899618262936063,5.895357440744458,1.4692964002970785
21.60470150789755,2.050083204796596,1.3943853131804875,0.47480836688443956,20.756440704454146,1.7574686173866736,11.10119143867253,2.024224389467054,21.621114215173733,1.4906647919640328,5.925845991327194,1.4716818180568285
21.772085749970007,2.055230177181925,1.4091270223795391,0.47382315893053906,20.93549678422325,1.7528355946716763,11.104588540804038,2.028795597289299,21.788678244951402,1.4989039850048502,5.956465636423418,1.4786051997937792
21.937103815421775,2.0608439468220516,1.4240527951228075,0.47761318396716806,21.11417382782134,1.765553888540407,11.108034433247814,2.0260389412754334,21.953932669849006,1.4991131953490473,5.986864550768882,1.4802035999962175
22.10903824632469,2.066254001601183,1.438860334296127,0.4783663334479717,21.290368145762585,1.7671869180269757,11.111544098393546,2.0220463486798903,22.12424673733489,1.4970231044255362,6.017237700151945,1.4808482392799134
22.27526496858598,2.07046195650378,1.4539400542552903,0.482378732974492,21.46742385287599,1.7792553865018303,11.115114689620741,2.0245468025444215,22.291038961501645,1.5184324576696506,6.047520498534663,1.4862580741390568
