coupler,coupler,$D^a [mM]$,$D^a [mM]$,$I_{islet}^a\ [pg/islet]$,$I_{islet}^a\ [pg/islet]$,$\gamma^b$,$\gamma^b$,$I_{cell}^b [pg/islet]$,$I_{cell}^b [pg/islet]$,$G^b [mM]$,$G^b [mM]$
2.69719023740475,1.069479034118772,0.5037712182025038,0.22405995340881957,2.2072797772329293,0.44845360708787735,11.000653348462121,3.4558742006141228,2.1948660955273622,1.2655239249253245,3.2069956584773074,1.862444419923571
2.97812233056898,0.9641818369477972,0.5062652319016454,0.2747803688745417,2.3160834111892683,0.5708472589004897,11.001213554255909,2.6167389108853754,2.9302023779484,0.4829502986828194,3.233134619982743,1.4118773961960334
3.258165178823425,0.9249542834003429,0.5084804491320742,0.2850584882377199,2.4020874353422372,0.6070433693663192,11.001138512995148,2.3021610806427755,3.260684666159168,0.5407916603524838,3.2634036882068687,1.2453314978230983
3.5376091670249052,0.9138620020257574,0.5108063503628224,0.2863813992278546,2.484060461302483,0.6205650150041271,11.00096759673663,2.1714641422965455,3.545099850549506,0.578565360259289,3.29630421703525,1.1787452425989016
3.814871275545877,0.9186716412680782,0.5133138992910767,0.2869753482431804,2.5653357453681314,0.6312127036849712,11.000794153477772,2.098995428541708,3.822917171918332,0.5993262491181349,3.330081958824779,1.1442077403409143
4.090658007432229,0.932150465100505,0.5160080229633803,0.28825369947196333,2.646418566403143,0.6428694465256559,11.000606610542071,2.0673605997356654,4.09876281908208,0.6244210440392917,3.364573117633968,1.1321522261041193
4.365283282121001,0.9524422775251732,0.5188613708450777,0.28737523360640266,2.72676864141861,0.6493463568866051,11.000434505929332,2.0426370981445294,4.373353465438377,0.6397587826263884,3.3991653416602032,1.1240480723686388
4.639538895448359,0.9747338516931332,0.521952919014026,0.2884638376911683,2.8086510121226818,0.6598522429945999,11.000277158895486,2.0246416580215443,4.64749172088683,0.6584117425259334,3.4337702845363762,1.11971381415759
4.912608599298347,0.9983493853184019,0.5252108019515702,0.2882463336694274,2.8902343703955005,0.667236570694848,11.000127026242405,2.021422302942965,4.9205174276393855,0.6872967180301703,3.468436821449576,1.1236040606185245
5.182971870318621,1.022984890238555,0.5286531221353697,0.29266244707350103,2.972047547552497,0.685195839566846,10.999985487513325,2.021267466418852,5.190990905382092,0.7083142430277005,3.503096064825547,1.129194703867639
5.453130478066129,1.0493306588478628,0.5321647788381626,0.2927603451195122,3.0516759231971142,0.692888408694424,10.999855977131777,2.0188695350942454,5.46102889225896,0.7234555746263313,3.5377273953236177,1.1334925554272801
5.722982422005493,1.0762820866102332,0.5358974274877688,0.2931556042904473,3.132633674909152,0.7007853892813324,10.999748260636999,2.0141342722364506,5.730747879113165,0.7403734522116281,3.5722134675124733,1.1364663257179157
5.990378030111626,1.1015889433857622,0.5397533828081388,0.2936419410868859,3.2128601497681273,0.7087780784258584,10.999640970648967,2.014888203672548,5.998232906552321,0.7558934113231094,3.606904857594703,1.1424283883865014
6.257533059336702,1.1271211288265457,0.5437660363833089,0.29512417041894456,3.2931565597076697,0.7189071962257599,10.999567270604743,2.018723844900911,6.26526602783275,0.7842623189804788,3.6413330775969777,1.1502531919251788
6.522738678374352,1.1523730697783194,0.5479066767220447,0.2954346161094639,3.373052665119538,0.7259623402874685,10.999506948449824,2.017012996600056,6.530500101396782,0.7932438203041153,3.6757580399271688,1.1548021575969976
6.78709321301847,1.1761151084162633,0.552242405377969,0.29785191958070245,3.4538695885243724,0.7379681028343045,10.999470368149767,2.0197546030841127,6.7947966116800576,0.8165365321834358,3.7100942670915287,1.161914669699659
7.049228055226489,1.1989871233328748,0.5566789359470121,0.29848129383803995,3.533924928041896,0.7454354730907272,10.999451054754692,2.0150499709733967,7.056997173053872,0.8203813691815289,3.7444430366723194,1.1646228000355512
7.3118084545563065,1.2227120404904899,0.5612909608756469,0.29877042191332326,3.6145990601335165,0.7517776132435385,10.9994702178346,2.0124649045342764,7.319389806395312,0.8449657621554865,3.7785056269359085,1.1686209989355354
7.5739729720721245,1.2459902589886058,0.5660236721428878,0.30312958872311,3.6949633299972393,0.7682988091632335,10.99949675789742,2.0151396913318633,7.581428836128309,0.8576864580555188,3.8127957610309045,1.17552565757486
7.833435599231463,1.2682119162729395,0.5708076408994044,0.30229970813136686,3.7739901865098524,0.7714692314708929,10.999560446909701,2.011202799273197,7.8409992314508745,0.8697546370909608,3.8468504863233934,1.1785898283614733
8.090047087705225,1.2891075605802456,0.5758081295436245,0.30478232514977943,3.8544004534850265,0.782819931991924,10.99964762728447,2.006652933091007,8.097762507184346,0.8790072823259739,3.880919261198704,1.1812014926907186
8.346079863831564,1.3101550883640556,0.5808690544596937,0.304004381603775,3.9337452261896524,0.7856940778269853,10.999759560196106,2.0130243253113616,8.353724194087057,0.904983548548952,3.9150431541055513,1.1902499118662186
8.599368043248642,1.3306418390204118,0.5860682895693003,0.3079261540461915,4.013271754976763,0.8005367035885663,10.999909421634179,2.0101715388402717,8.60712339310443,0.9135955044804862,3.9489268501975516,1.193835136419227
8.854484495286759,1.3507534710977929,0.591313717441683,0.30577903954940117,4.091682830863165,0.799410144820224,11.000085440072631,2.007492676779358,8.86192261543755,0.9226578491471588,3.982848041715802,1.1974300912956206
9.107305314889032,1.3704966354974204,0.5968046665364083,0.30872604476367244,4.171920020566448,0.8113710878795614,11.000293646924826,2.015633061764647,9.114796916877506,0.9523785192124051,4.016739072849425,1.2075218642958379
9.358443275790759,1.390145713225261,0.6023443180195744,0.3100422709920523,4.251151444143618,0.8190171877734765,11.000534337216127,2.020982618713296,9.365954615266839,0.9657128344295827,4.050557034615323,1.2159191565907217
9.60690729067025,1.4089942986570945,0.607998950149221,0.3107984875291015,4.330362478284706,0.8249917456137279,11.000817746902566,2.015020495351806,9.614538134193532,0.9708116463234882,4.084085054997527,1.2174882878253923
9.854020999037173,1.427616451033727,0.6138241709574528,0.31440369714077476,4.410340438991377,0.8384063971491761,11.001127262000805,2.0185761101967916,9.861660537836949,0.989410215659166,4.117757479611289,1.2247272712625326
10.100296743034137,1.4448638912822214,0.6196983087986336,0.31513443631311133,4.489456638657275,0.8440736131388628,11.00147852828205,2.015950159086228,10.107868715491877,0.9986698314145455,4.151227569296875,1.228209478730089
10.347034359572064,1.4632221419333682,0.6257303527770363,0.31693283155876495,4.56918859413155,0.852431236632371,11.001859282992664,2.0186586957357973,10.354411993372436,1.0109135489946768,4.184848130686592,1.2348591243976446
10.590929345698036,1.480492355157621,0.6317771123080119,0.31851640178169016,4.647679562286812,0.8601311276167833,11.002282657092774,2.019692568035058,10.598425728641118,1.024756087271648,4.218333104031884,1.2405057437660598
10.83061264622553,1.4969971823741024,0.6378852429381257,0.31901728695776155,4.725599482502886,0.8647244606945346,11.002745073647336,2.0152373194147346,10.838398510066694,1.0271640400096975,4.251755764417046,1.2427150939293148
11.073417028429072,1.5143555051904416,0.6441347575522512,0.3212728937711524,4.803992735063312,0.8739238717809568,11.003252072884496,2.011056035497289,11.080771316526498,1.0420903429421615,4.285001774435292,1.245093388899678
11.3113654070075,1.5307647171670113,0.6505730666619821,0.3236980636646467,4.883456555346736,0.8834863290015509,11.003790661644725,2.014220944512187,11.319024167627804,1.0532250381465338,4.318473313209728,1.2519140171198049
11.551107817130587,1.5473372264681666,0.6570211547892832,0.32643220832332565,4.961782873984733,0.8938631872457687,11.004375073736515,2.0170095757174527,11.558468809063228,1.0686692785742982,4.3518179102198635,1.2585402735401987
11.790535429276,1.5641119621692288,0.6634595464726295,0.3243756660238373,5.038800983815689,0.890954452695614,11.005002893523947,2.0191790906422917,11.79775047233269,1.0808470653830304,4.385093328562541,1.2647658363069512
12.02539407016102,1.5789705056438754,0.6701976967514248,0.32672425973293684,5.1182014655218975,0.8999593509455756,11.005676029161302,2.020947343916642,12.032907829607161,1.09584700279751,4.4182337953763735,1.2707412098107043
12.261429209760447,1.5949588814138478,0.6770018251550242,0.330351922923877,5.19721495646361,0.9124886437401653,11.00639495345579,2.01414285599094,12.26870481807722,1.0965805240197504,4.451187302605035,1.2712662570426811
12.493769282031337,1.6087669374816334,0.6838319699491767,0.3315448585249737,5.275414690142684,0.9182016013314576,11.007156450275101,2.0094326617326357,12.50125375548589,1.1038261803462357,4.484163189211851,1.2730253690645454
12.72656744676456,1.623928966097898,0.6906944762912615,0.3305800967901027,5.35290089336198,0.9178004030417197,11.0079607327626,2.013825493716171,12.73388662956707,1.121122108737227,4.517276917657071,1.280511797630129
12.956315575541405,1.6377608088713052,0.6978002162749318,0.33396276800451824,5.432055516789752,0.9293424649387098,11.008815279760793,2.0144422350630204,12.963775299591587,1.1337448283014442,4.550175806684404,1.285632263513199
13.186734573900265,1.6514823100180422,0.7049152299973994,0.33531360817950606,5.510276872967674,0.9351937597438914,11.00971589080632,2.015369808539769,13.193995939320455,1.144299990361632,4.583032624101259,1.290909684117291
13.413772989427375,1.6644913852131946,0.7120539160362755,0.3367727863868386,5.587751756575638,0.9412442561686006,11.010664989184303,2.0137419715466858,13.42120955717356,1.1535988839338127,4.615748860497496,1.294528069699773
13.641254686240725,1.6785189780218248,0.7193965794954089,0.3389004061504158,5.6664565854778886,0.9490460545122376,11.01166233243138,2.0096772957192606,13.648518734928864,1.16146614826608,4.648324566165089,1.296537407669688
13.86690237179142,1.6923585081517176,0.7267321480078679,0.3418979461289174,5.7441210201200406,0.9592489873998614,11.012705847595878,2.0141726142060166,13.874196386906391,1.1747826305023756,4.681093597072482,1.3039892972275724
14.090072372538037,1.7043102692613514,0.7341586027224851,0.3426463447012245,5.821821849591448,0.9630338299266873,11.013800903420142,2.0128739533199167,14.097474013620731,1.1774220926618295,4.713751765461987,1.3076827070335943
14.317280765734226,1.7176716911313485,0.7416869493147393,0.3446034121410064,5.899669185270332,0.9701358477806457,11.014947903534857,2.0122614763793596,14.324143500279051,1.1905319588052645,4.746294770345958,1.3118246514551675
14.53940927983187,1.7298230552792975,0.7492959216710006,0.34554016435241486,5.97745509308702,0.9742870651709519,11.016146261042136,2.017697837824399,14.546587258042901,1.2095182643914895,4.778845782127727,1.319894366515163
14.758809664293972,1.7412058815665774,0.7568115027008548,0.34691984164164724,6.053419423856237,0.9796199324131876,11.017396165830384,2.010637289686326,14.766149719908197,1.1939676835493713,4.811354470106392,1.3196941981058352
14.979261268907974,1.7538151364245005,0.7645720650016076,0.35001717645403674,6.131025492911053,0.9896888995454769,11.018700964108227,2.01609393970479,14.98637895108205,1.2194708941312142,4.843938572823188,1.3277278663699552
15.198029367650726,1.7650141667314947,0.7723855792180089,0.3496766333241387,6.208330313788418,0.9899879392782241,11.020059688350624,2.020288853870927,15.20514433192699,1.2350486899151425,4.876353293393456,1.3349659556680844
15.414034901650455,1.7768063193464536,0.7802964211467563,0.3548984085007999,6.285769345341125,1.0059784879396418,11.021470815078445,2.0226658592359996,15.421283009775971,1.2463617138707765,4.908638369998915,1.3409894045294417
15.625407839748059,1.7876798658254696,0.7881500967086292,0.35642482260703906,6.3618688074698255,1.0114367199512242,11.022934283786356,2.0186443795320006,15.63299408692143,1.243688648182368,4.940836944714073,1.3427023467093462
15.840984316161371,1.7999044615676107,0.7961326216721777,0.3591921800127592,6.438448421678143,1.0203340579172113,11.024451171196759,2.0152500901098134,15.848040990768517,1.2538679521580298,4.972925697841559,1.3448070469662126
16.050167271485236,1.8099503933908831,0.8040860648795264,0.35738839188284205,6.513999558607455,1.0161807270025354,11.026023977390238,2.01923021677931,16.057675917982298,1.2703919007064741,5.005081412635031,1.351791526482659
16.2615063786536,1.8209376412104281,0.8122709376016645,0.36065500758054425,6.590998781775925,1.0263660378513735,11.027649842240136,2.015153234267714,16.268697278119085,1.2695802684829884,5.037056243910112,1.3533590739916472
16.470372184547838,1.8316023331807039,0.8205459569629231,0.3641977240557934,6.668109519199984,1.0372988255179383,11.029333630058122,2.014427041649099,16.477645174148044,1.2750144279371216,5.069117882690899,1.3571088931141913
16.673780738761888,1.8401273910573175,0.8287741328811193,0.3658256950167984,6.744064317241777,1.0427283996487908,11.031075208236587,2.018930321733288,16.681472995775845,1.2931079866434747,5.101153296954036,1.3643964402416704
16.881873345949757,1.84974631322034,0.8370962861607701,0.36617961695771667,6.820186423144615,1.0444527005662316,11.032871748625602,2.0175067971991645,16.8889909735674,1.2933219510833491,5.133076861651867,1.367654993985405
17.089575134107918,1.8602791965171146,0.8455078047418434,0.3701172292659176,6.896428472896239,1.0563469686146925,11.0347245477931,2.015475948880609,17.096534818078098,1.3023584864026483,5.164880204811651,1.3704873602023122
17.2949031666251,1.8705244211065026,0.8538552927741815,0.36868662153936876,6.9714219168884615,1.0528631650288656,11.036634346949524,2.018717258650442,17.301945372830122,1.3226614530348473,5.196603291638638,1.3769000488515692
17.497149107106004,1.8790639788305281,0.8624717831814677,0.3711042559405037,7.048162610435646,1.060301571287113,11.038604542126574,2.0152039671589717,17.50437038161441,1.3092710578074858,5.228397585430952,1.3785968542458502
17.69260505221855,1.886679232613724,0.8711405567103402,0.37495743446143787,7.124699863854626,1.0718056153097961,11.040640613055052,2.0275644323573876,17.700398937784676,1.3409616503785198,5.26033667513592,1.3911865842876017
17.890617973190654,1.8944660969433118,0.8797617314672496,0.3740654419067965,7.200170673424745,1.069693311853331,11.042731228826216,2.026829459816407,17.898063907503413,1.3327964310639093,5.292088137728059,1.394793567219526
18.08978662676416,1.9030592928752426,0.8885740086998772,0.3790406297502693,7.276671026166735,1.0843046141009656,11.044877999208625,2.023421599975973,18.09694377332441,1.3385584272938538,5.323687132542871,1.3965549940603437
18.29296006770326,1.913590678205438,0.8973631117269615,0.38075437118491506,7.352344897073512,1.0895435418390886,11.047081226781025,2.024288323599998,18.29954316082892,1.3589908186331996,5.355144689270618,1.4012695437005898
18.496446086145603,1.9241420335202388,0.9062157189463252,0.3817349925310467,7.427948827738476,1.0926335000018497,11.049339902925404,2.0195546830365614,18.50279539823474,1.359501029250255,5.3864402439181225,1.402050111782524
18.691270318910842,1.9321719868292093,0.915136270940527,0.38364758446269104,7.503523004475724,1.0983437409191483,11.051667945828966,2.0188509274567785,18.69833776914125,1.3603454177691527,5.417895825270657,1.4055270728395002
18.884300354872153,1.939978399642743,0.924168077687578,0.3854435271197067,7.579440294958115,1.1036739426315705,11.054055745311715,2.018112760880134,18.89148356151803,1.3695144519858415,5.449247152387506,1.408987509398258
19.077026910587588,1.948248309677345,0.9332523455106743,0.3896987386724084,7.6552014840537055,1.1160036329368603,11.056503632982619,2.0210829942117936,19.08411334536505,1.385989936064567,5.4805277502494825,1.4150379944491456
19.26611200635667,1.9555745986163582,0.9422683813555556,0.3885466598771411,7.729818103626964,1.1128036344851842,11.059013469553983,2.021481708009189,19.273416848189125,1.386452226072717,5.511785291688232,1.419242794530964
19.456600210170887,1.9642221221993197,0.9514538139090972,0.39295710337068634,7.805264168819138,1.1254910119504877,11.06158852640649,2.0277750406215342,19.463651082213325,1.4032759233175018,5.543067984741881,1.4275846685296314
19.640579345161164,1.9719067209058552,0.9605499273436645,0.3941809726720929,7.879419523339808,1.1290102866959593,11.064209003625841,2.018404253857617,19.648116445673246,1.3936461727079466,5.573984345824507,1.4248949462368647
19.825988903685502,1.9797664711780556,0.9697335190520939,0.39333687021122943,7.9537452830520055,1.126566396490071,11.06690374112922,2.020974657435187,19.833302002375753,1.406618903787178,5.605119472592056,1.4305494415873474
20.009775566812944,1.987754278530794,0.9790329793536219,0.3945857537684893,8.02846138429528,1.1300785203096728,11.069661209703005,2.02309839466119,20.017091480434175,1.4131700583118478,5.636207184266657,1.4358859119837395
20.190905262292908,1.994747674087507,0.9885078714039377,0.3951171591351561,8.104045381110035,1.1314980745346352,11.072485982502583,2.0257166053075975,20.19835431929069,1.4167109473010064,5.667326089953005,1.4415495153049953
20.375102623452143,2.0038070205511542,0.9979737497023111,0.3981117724921097,8.179008455566327,1.1399311794569862,11.075366144799624,2.0273510462334947,20.382117517379598,1.429652781982837,5.698270712455133,1.4465455366815863
20.559164331376536,2.011216096875217,1.0075496289327397,0.403290631198173,8.254317267180465,1.1545798831334306,11.078293436105701,2.022357817094708,20.566007107608304,1.4346834660086598,5.728924836453897,1.446807171053043
20.73830601938002,2.017526263951703,1.0169617251296241,0.40204839718532964,8.327820746876682,1.150807950341949,11.081296068860748,2.025521146543523,20.74549592535638,1.444748521957104,5.759733936224874,1.4528179508072756
20.91486738900905,2.024754262786431,1.026550281221987,0.4057383265020553,8.402196708852143,1.161123604063556,11.084359551451982,2.023504430090065,20.922215935497018,1.4409689441282656,5.790462505773579,1.4550852713105744
21.09141919398049,2.0313445830466756,1.0361658530023878,0.4068365723650011,8.476281578114905,1.1639858314350937,11.087491702767178,2.0264536035531946,21.098652600852525,1.4527613610704104,5.821219933640328,1.460908097410093
21.265106242617307,2.0381019822605793,1.0458286169608786,0.4084082482209269,8.55023160481638,1.1681695580217966,11.090677455780833,2.0213358228873615,21.272478292689062,1.4477054273629981,5.851792026670263,1.4609013158376136
21.435115071906633,2.0448908165902835,1.0556321489486309,0.41047941712776675,8.62476807879188,1.1737503249623338,11.093932760917582,2.0279006851147265,21.44274061725703,1.4739109073091137,5.882405509524446,1.4693331155447678
21.604701507897545,2.050083204796596,1.0653821825591598,0.4116899539223316,8.698405144309145,1.1768334526784154,11.097231993579687,2.0232025973471255,21.612252882942702,1.468676731177951,5.912747467727507,1.4695920604385955
21.772085749970028,2.055230177181925,1.0752239729083604,0.41359355244108464,8.77225882174897,1.1818705447914852,11.100596885233315,2.0220950523044046,21.779720788258647,1.4755515148209135,5.9430999308287,1.4724013457600782
21.937103815421807,2.0608439468220516,1.085159167946321,0.4181693655272125,8.846338167645474,1.1945084045613061,11.10402643468918,2.028137580455158,21.944852248836263,1.496167357687489,5.973440276865693,1.4804132876668796
22.10903824632468,2.066254001601183,1.0950625771620366,0.4158532439404307,8.919713696228202,1.1874305364602928,11.107508147405566,2.0246906412970476,22.115962018327167,1.487154979968965,6.003629474165786,1.4814640657061806
22.275264968585937,2.07046195650378,1.1050891482790135,0.41848440592840885,8.993531196402524,1.1944544105034711,11.111069641765093,2.025357692744921,22.282553993299707,1.4883477654320751,6.033946047910294,1.4854642802932276
