coupler,coupler,$D^a [mM]$,$D^a [mM]$,$I_{islet}^a\ [pg/islet]$,$I_{islet}^a\ [pg/islet]$,$\gamma^b$,$\gamma^b$,$I_{cell}^b [pg/islet]$,$I_{cell}^b [pg/islet]$,$G^b [mM]$,$G^b [mM]$
2.6971902374048526,1.069479034118772,0.5037717102080969,0.22435370633704024,2.550242931286773,0.44863604399945783,11.000472627949309,3.4401462767431013,2.059454460745524,1.4050097503444112,3.206413554711902,1.8539817902114832
2.9781223305689823,0.9641818369477972,0.5074341000478857,0.2758926665509908,2.888529269365975,0.5229032824879605,11.002022555336252,2.60517497935731,2.835847967040499,0.5317677120334907,3.2355618779028616,1.4055541250374468
3.258165178823425,0.9249542834003429,0.5111218390843041,0.2838068898288567,3.1843660408090457,0.5547757103021105,11.002286027046734,2.302205886319077,3.243219174119476,0.5427192166404087,3.2671698536020837,1.2455045233400257
3.5376091670249066,0.9138620020257574,0.5152400096192543,0.28854239534029463,3.468849428798497,0.5922230227647136,11.002308145986616,2.159478472152167,3.548455801479071,0.5790173188412415,3.300407224503891,1.1726192915243308
3.814871275545879,0.9186716412680782,0.519819907466408,0.2886452985151193,3.7480428181098744,0.6121445952622623,11.002254827396818,2.09106748602119,3.8310602148586717,0.6060502398977214,3.334711407719189,1.140360944933461
4.090658007432233,0.932150465100505,0.5248909188469273,0.28985906121371835,4.025466368593677,0.6354658010969566,11.00217876464545,2.057366448590444,4.107913459758519,0.6308454640384276,3.3694984444471174,1.1272629786474717
4.365283282121005,0.9524422775251732,0.5303194389508039,0.29213897695552277,4.300591326091164,0.6636160108022636,11.002098423726629,2.0350306854726683,4.382672859196323,0.6481538368167795,3.4044619117324837,1.1205062224664748
4.639538895448361,0.9747338516931332,0.5360872289333964,0.293050535729731,4.57454749947031,0.6844411695893045,11.002027221587474,2.0299825818062454,4.656721422746462,0.6809523361389885,3.4393970123136626,1.1234384948872729
4.912608599298347,0.9983493853184019,0.5422844176995391,0.29495205020683524,4.8482843480657065,0.7053118409909171,11.001957589207928,2.0222563157935376,4.929646579145932,0.6955376431266904,3.4743105468944813,1.1248470361224854
5.182971870318619,1.022984890238555,0.548737604933765,0.2949957595748371,5.119351936370578,0.7222540833925011,11.001888886164041,2.0210727679452978,5.200247290242505,0.717538433556014,3.509258540802267,1.1298855159269947
5.453130478066126,1.0493306588478628,0.5556475002402322,0.29641868313129777,5.390499581088787,0.7385863351279867,11.00182207340731,2.018276260978538,5.470195757256113,0.7304979675088623,3.544265991725298,1.1339545652488356
5.722982422005488,1.0762820866102332,0.5628143915505925,0.29966485323592784,5.660630946310325,0.7649089837951355,11.00177724560909,2.0193055881044413,5.73976527012684,0.7557787035248635,3.5791093723302336,1.1402438059833648
5.990378030111627,1.1015889433857622,0.5702040374936731,0.3026317644896949,5.928394626323414,0.7881634891461332,11.001744765782353,2.021844556807443,6.007278482051994,0.7769862711777263,3.613872138616327,1.1473625685490163
6.257533059336692,1.1271211288265457,0.577791485196038,0.30378569162367985,6.195229842893713,0.8041699452768707,11.00172739750534,2.0201505719295625,6.274194291880867,0.7904489596039325,3.6485515738354835,1.1520144956843497
6.522738678374352,1.1523730697783194,0.5856570609822708,0.3040830360169472,6.4610621146800975,0.8155466275996575,11.001732126189939,2.0154097479537105,6.5394444180812865,0.8052312062206453,3.6830785137273514,1.1548880773186683
6.787093213018473,1.1761151084162633,0.5938754762411901,0.30711783490087724,6.72645897838487,0.8358383820320889,11.001744599205063,2.016009351825261,6.803698271005287,0.8222699149952245,3.717704268859411,1.1607337864377572
7.049228055226509,1.1989871233328748,0.6022716551868115,0.30872022207432803,6.989402003041307,0.8509794080615724,11.001785660115985,2.019265930282863,7.065946648532831,0.8470546831268969,3.752136859932256,1.1681623783772532
7.311808454556289,1.2227120404904899,0.6108418418536011,0.31251636332308197,7.251824406620547,0.8762827527924116,11.001830411243132,2.022245212107267,7.328170379959792,0.8549977178431308,3.78678152676559,1.1752857856450027
7.573972972072117,1.2459902589886058,0.6196302381936587,0.3140412875011829,7.513798230528015,0.8875722921620046,11.00191446876882,2.017245515423933,7.590043827343715,0.866612384250711,3.8211552096612578,1.1778123039196788
7.8334355992314215,1.2682119162729395,0.6287424618671031,0.3167177863790312,7.774711807598202,0.9027127134825117,11.002030029347884,2.01257501027419,7.849686745534342,0.8845816230380186,3.8553367405287884,1.1805121831815442
8.09004708770521,1.2891075605802456,0.6379295561208091,0.320030134756365,8.032378695282294,0.9252982125799926,11.002163516306945,2.011703174779506,8.106614589217472,0.9000468391308433,3.8895500993220913,1.1853439341617202
8.346079863831546,1.3101550883640556,0.6471651304652887,0.3190088096211796,8.288157316562302,0.9287716565603064,11.002316604336384,2.0157122564223906,8.362542508359155,0.9170152904046904,3.923841290125045,1.193001272247511
8.599368043248644,1.3306418390204118,0.6567610165931274,0.32307874516113094,8.543049435985271,0.950720831472536,11.002514029770708,2.011456625040835,8.616032740258083,0.9312041722414569,3.9577601159659213,1.1958097815583508
8.854484495286794,1.3507534710977929,0.6665571730417122,0.3274978937998299,8.797985658855941,0.9711385037022142,11.00273048231394,2.0119307531635577,8.870536241366219,0.9445567682709644,3.9917910670351726,1.2013111758633086
9.107305314889063,1.3704966354974204,0.6764472161234003,0.3300795040960626,9.051207388514575,0.9853270012248458,11.002980270827006,2.013827029899512,9.123398278715658,0.962800923712441,4.0257123889725825,1.2076644932375031
9.358443275790757,1.390145713225261,0.6864980905616302,0.33287164701580957,9.303027147616064,1.0007596530531946,11.003260280126531,2.0180408534700165,9.374583984816164,0.9807951323375322,4.059588393536663,1.2153852947039208
9.606907290670241,1.4089942986570945,0.6966183815085141,0.3328326430898019,9.55228749679891,1.0053107699520598,11.003569088799075,2.020856694571285,9.62330796312209,0.9909176216587938,4.093479871998575,1.2222088891409892
9.854020999037164,1.427616451033727,0.7070484425387547,0.33604552155819484,9.800704177072088,1.0213555663932408,11.003916416292537,2.019525923730238,9.870453384532652,1.0010851867543822,4.12723257035456,1.2265175047460273
10.100296743034184,1.4448638912822214,0.7175771078801441,0.335974565051188,10.047475833223004,1.0231419645325177,11.004299488354274,2.018788530413733,10.116614395356711,1.0143826740951511,4.1609194826602645,1.2311550257332144
10.347034359572046,1.4632221419333682,0.7283580615447716,0.33838999360158806,10.294633180861577,1.036262757560438,11.004728257669804,2.004804794810462,10.36291159178059,1.013107269150424,4.1942947074060495,1.2276557784891136
10.590929345698024,1.480492355157621,0.7393707569804193,0.3426162280747812,10.53987107852664,1.0544464135139107,11.005180530055853,2.0131397083699563,10.607052870196009,1.0439625229709915,4.227954908304263,1.2377542885578308
10.83061264622557,1.4969971823741024,0.7504288966859377,0.3435130835461221,10.781159194066465,1.059101544074031,11.005674376773394,2.016209899095718,10.847308044558243,1.056386060228566,4.261436910744565,1.244633326164967
11.073417028429091,1.5143555051904416,0.7615570818563266,0.3461544038204968,11.023232305460356,1.0756057260426555,11.00620647480902,2.015044120014087,11.089304879475646,1.061401064113603,4.294877340559696,1.2488375565589447
11.311365407007502,1.5307647171670113,0.7727504192438284,0.3502966487118342,11.262227430586023,1.0967775381873974,11.006774877303009,2.0171876784006533,11.327809711839592,1.0724992794897996,4.328395969715049,1.255047239124227
11.551107817130562,1.5473372264681666,0.7839921918519744,0.35264976991768393,11.501214851104498,1.1075088478385944,11.007393418743481,2.013343141224807,11.566985083466319,1.0844973809287273,4.361611601793011,1.2575720443831624
11.79053542927604,1.5641119621692288,0.7955460879461698,0.35679177151726355,11.740987024818645,1.1216438951966368,11.008048909813795,2.0199588826325816,11.806080271259043,1.1079174040273778,4.394904953665862,1.2665892459605828
12.025394070161035,1.5789705056438754,0.8070127627236436,0.35846686656015286,11.9770102246471,1.131905903432708,11.00874607734611,2.0213271885842854,12.041493506697408,1.113242271131092,4.428135608572698,1.2722719987904185
12.261429209760465,1.5949588814138478,0.8187217462662072,0.35923240835495934,12.213263918532835,1.1327010758632994,11.00948779531651,2.0171261051381997,12.277121935638055,1.1142863329153265,4.461299357724155,1.2743970094341455
12.493769282031279,1.6087669374816334,0.830412288785093,0.3611331655281499,12.446720490201885,1.1465959697611157,11.010273777315135,2.016662206241953,12.50985960449755,1.1270207509228558,4.494464776780194,1.2788569859606413
12.72656744676453,1.623928966097898,0.842391594598349,0.36572721665253943,12.679993729944101,1.1635329698244639,11.011105506503139,2.0194513967608376,12.742353815585817,1.142876834726554,4.5275975304950995,1.2853767400097418
12.95631557554144,1.6377608088713052,0.8544163453327537,0.3668209181362407,12.910761078993648,1.1656573157791807,11.011982514599518,2.0209548772538,12.972368528087234,1.1504046202499423,4.560717797675567,1.2910427939998876
13.186734573900274,1.6514823100180422,0.8665866353641726,0.36907594143169153,13.141452445467346,1.1755035514373153,11.012910631125239,2.017697011373826,13.20240096407809,1.1616339336242474,4.593573101612799,1.2936898017826695
13.413772989427338,1.6644913852131946,0.878894672330473,0.37573267524721904,13.36979282756823,1.204712791824527,11.013882254170245,2.018524125189756,13.42977197704571,1.1706635034800166,4.626530525433604,1.2988653127195402
13.641254686240762,1.6785189780218248,0.8910816702372423,0.3768079595424733,13.5967037538782,1.2077482717768317,11.014902273436435,2.0235119031455078,13.656950063130749,1.187309089519398,4.659482540550138,1.3067196434504866
13.866902371791477,1.6923585081517176,0.9034759941803475,0.3791518781814362,13.823089653890824,1.2158606113489976,11.015972051949127,2.0246824482441053,13.882610429294497,1.1944033234494627,4.692336501351449,1.312096669268365
14.09007237253807,1.7043102692613514,0.9158704998289501,0.37945181182850035,14.047119126802396,1.2177644191147634,11.017092049697917,2.022771360537004,14.105998745658885,1.2010862340735096,4.725074417137145,1.3154536126655973
14.317280765734193,1.7176716911313485,0.9285374962342955,0.384429731929962,14.273566718387269,1.2375986161559753,11.018262822064413,2.0215780164355848,14.332144937374702,1.2119866682069536,4.757737525495202,1.3192483820261676
14.53940927983187,1.7298230552792975,0.9411773914408778,0.38571460122640283,14.496782108958266,1.2407135443827249,11.019484153308834,2.0189367807930974,14.55480728031934,1.2146375498933575,4.790402970209281,1.3220291369913244
14.758809664293985,1.7412058815665774,0.9540211981126214,0.390507844999488,14.71782587928503,1.2595420756346947,11.020758049983645,2.0173183208997556,14.774573526023495,1.2344566949152564,4.822810106701454,1.3255178798908815
14.979261268907909,1.7538151364245005,0.9667924254620704,0.3918610973736985,14.93792735655994,1.264010276574487,11.022081825126241,2.0231517893095847,14.994617378785392,1.2420526077138576,4.855499278136556,1.3337824065878854
15.198029367650697,1.7650141667314947,0.9797300988903371,0.3945412862991477,15.157310693001378,1.2733926014576644,11.023459758272178,2.0173786923502006,15.213337484886575,1.2445053967970738,4.887834870190752,1.3344371264195294
15.41403490165044,1.7768063193464536,0.9927454690714359,0.3970159909847233,15.374430473175021,1.2819959391189064,11.024890542980023,2.0238841623865196,15.429627221641015,1.2707405230827955,4.92022710424326,1.3431911912661105
15.625407839748112,1.7876798658254696,1.0059588657044858,0.39829724401889083,15.588058694154073,1.28165933668268,11.026373587814328,2.0182384238686613,15.641697376714482,1.2571267409995022,4.952562447472091,1.3437893108470325
15.840984316161354,1.7999044615676107,1.0192023124155756,0.40186903591863726,15.802857455660973,1.2981811795407776,11.027912473914636,2.019732893801875,15.856306559369804,1.2758588736486807,4.984872311785377,1.3491505824584114
16.050167271485197,1.8099503933908831,1.0324547777478046,0.40744147383759816,16.013679450096642,1.3218552912073458,11.02950627718622,2.0202229882817653,16.06629881944648,1.2823389057090933,5.0171443892116905,1.3538090647104741
16.261506378653557,1.8209376412104281,1.045617111516444,0.40740131934809704,16.22419463158066,1.3181353997238512,11.031155638786826,2.023774564240125,16.277085005446057,1.2975465940580708,5.049368127781085,1.3605203365021434
16.47037218454787,1.8316023331807039,1.0589920078789754,0.4100270093552857,16.43398772925481,1.3269460612167128,11.032858004573127,2.01726454525599,16.486038079615557,1.2939833431284369,5.081376064105992,1.360434435059042
16.67378073876184,1.8401273910573175,1.0724556037827562,0.4135075957691826,16.6396371914265,1.3391777190263239,11.034618094967502,2.0198314253869345,16.69031769234938,1.30977934774854,5.113481547219141,1.3664189424280808
16.88187334594969,1.84974631322034,1.0859301563114112,0.41526640243000845,16.846580778027587,1.3437676155178717,11.036433948568915,2.0219360950742034,16.89734268497876,1.320609289430621,5.145498203262015,1.3720896843486432
17.089575134107896,1.8602791965171146,1.0995599041239048,0.41908593583751264,17.054121575421387,1.3568367005342066,11.03830653773478,2.023514836080317,17.10462303190802,1.3297014672253613,5.177444169389683,1.37738496419296
17.29490316662508,1.8705244211065026,1.1131577690276908,0.422827988707412,17.259903590657682,1.3714840143433218,11.040235815695462,2.0203273581001255,17.31006433334993,1.3297041982439817,5.209293873088299,1.3793944742006867
17.49714910710606,1.8790639788305281,1.1270787807078917,0.4245495622210453,17.4638028070005,1.366761647060837,11.042224441057288,2.023611724699608,17.512692130097136,1.347766503877854,5.241131024991081,1.385812619777565
17.692605052218543,1.886679232613724,1.140862654533119,0.4283046637242773,17.662034119437223,1.3865450853982644,11.044274934792307,2.02925110504473,17.709330412576023,1.354593015048496,5.273066649485588,1.393799241393243
17.890617973190604,1.8944660969433118,1.1546555742732716,0.4308999640935389,17.859698973945267,1.3946289586527716,11.046378214361955,2.0278902517785147,17.906771731158308,1.3603857391345369,5.304749731365876,1.3970111531917175
18.089786626764162,1.9030592928752426,1.168639624692228,0.4336233056489705,18.05847553213391,1.3994606134589598,11.048536187935078,2.0264131070045606,18.10530423065672,1.3717996234965117,5.3362860459507235,1.4001239603282092
18.2929600677033,1.913590678205438,1.1826004051346752,0.43411266775721,18.259856215655397,1.3990483725986484,11.05075764413153,2.0247878449091634,18.30726458149978,1.3694519161598546,5.367914914419279,1.4030392043981919
18.496446086145603,1.9241420335202388,1.1965992244372485,0.43806586829542865,18.462458858874562,1.4172545925849291,11.053040005005391,2.026682194122495,18.5101704142125,1.386036938597125,5.399451646289,1.4084102249856951
18.691270318910842,1.9321719868292093,1.2106635182540133,0.44085823014852515,18.65985581068381,1.4242427106014706,11.055379885967438,2.0198700079021807,18.70634398942517,1.3788185868053013,5.430841125413089,1.407678326074345
18.884300354872106,1.939978399642743,1.224735662637877,0.44061798461204216,18.854292250925567,1.4193558495464202,11.057780730604621,2.0217140350039813,18.899750491310144,1.401007967038288,5.462186085576307,1.4129732699830748
19.07702691058762,1.948248309677345,1.2390537692726133,0.44421655758228445,19.04798094550449,1.4306295126539716,11.060245423034274,2.023170851394152,19.09233256051068,1.403095479941547,5.493571536050976,1.4179372531914143
19.266112006356686,1.9555745986163582,1.253413186494179,0.4469694316719091,19.23857577110939,1.4376365762541947,11.062775598315291,2.026168439363075,19.28186709974823,1.4092477568947543,5.524987748778437,1.4239603746137781
19.45660021017087,1.9642221221993197,1.267624998657621,0.4498443771970874,19.428620030596843,1.451581638307667,11.065362848783927,2.0251292466525244,19.471880097832106,1.4140603151348565,5.556247810586436,1.4271568813691256
19.640579345161157,1.9719067209058552,1.2820259177156685,0.45167031484717485,19.614816070334015,1.451431878449795,11.068006630417015,2.022191213176285,19.6568055632979,1.420406816210828,5.587361577125963,1.4289972752491658
19.825988903685502,1.9797664711780556,1.2965287482909666,0.4547798144544509,19.800599416099733,1.4604474997737538,11.070722838935897,2.0282542814247586,19.841860433473347,1.433288266993566,5.618649935237853,1.4371423859944517
20.00977556681294,1.987754278530794,1.3110629776721194,0.45795875473963077,19.984952344190106,1.4700435568637034,11.073492950171623,2.0299864024941097,20.02561567285564,1.4423272609064812,5.649735018234152,1.4422508253419761
20.190905262292958,1.994747674087507,1.3255444004950856,0.45979253674945186,20.166933303017743,1.4754485288208763,11.07630991422782,2.0235466069548904,20.206985803041785,1.443580132547406,5.6805324287785455,1.4415389111913381
20.375102623452076,2.0038070205511542,1.3402935296885379,0.46249385098522366,20.35058916194018,1.478016141272549,11.079196990063805,2.0262614683769353,20.390352634418235,1.4574718594929237,5.711447140255122,1.4472758449144723
20.559164331376547,2.011216096875217,1.354900249130348,0.4658275610178645,20.53414613878612,1.4932878843473978,11.082146740813213,2.0271190186934898,20.573996060406635,1.4607845807231985,5.742312717596621,1.4516597606596888
20.738306019380058,2.017526263951703,1.3694576555810691,0.4655134036418957,20.714470332323124,1.4885165978898565,11.085159874376282,2.026984717336202,20.753786142212245,1.4644628961054944,5.773126194156981,1.4553103708459625
20.91486738900907,2.024754262786431,1.3842295444616854,0.470624535813038,20.892631588383534,1.5069131068858268,11.088236244478825,2.030876906395672,20.93073634798221,1.4799553073805232,5.803892198945421,1.4618532698887032
21.09141919398046,2.0313445830466756,1.3991147535727588,0.4746867747433629,21.06969233696269,1.5150359465475414,11.091368168971583,2.029547787267352,21.107085028911996,1.4810933420531749,5.834515266234219,1.4646191230911414
21.265106242617296,2.0381019822605793,1.413909056711668,0.47979532662809005,21.24431996248075,1.5348437920513214,11.09456879107466,2.0304554121400047,21.281055447186624,1.4854462645887312,5.865175202523145,1.4689524111569163
21.43511507190662,2.0448908165902835,1.4286429748565077,0.47902626438196344,21.415609408768237,1.5250763385257138,11.09782586185995,2.0300022949888397,21.45159618015658,1.4931555577911073,5.895700155804909,1.472302728882361
21.604701507897545,2.050083204796596,1.443489069257075,0.47814211084523167,21.585929473968132,1.5179863124335977,11.101134175150554,2.024279601350461,21.62109657423158,1.4925866553863827,5.926046797231511,1.4718013616083336
21.77208574997002,2.055230177181925,1.458518961262427,0.48075689550269324,21.754543458446523,1.525715353331511,11.1045228019646,2.029032648672916,21.788664762510944,1.5051558149649584,5.9565795590210735,1.4788544258060479
21.9371038154218,2.0608439468220516,1.4736798447461745,0.4880464905078186,21.920862305111136,1.55163487667254,11.10795693700316,2.025650080227933,21.953914458276955,1.5057884260076058,5.986858629223082,1.4799940836823047
22.10903824632468,2.066254001601183,1.4887410852197454,0.4880015878227691,22.09032901907541,1.5425317225601207,11.111458575944495,2.0271500265783406,22.124231332988515,1.5161595093366076,6.017162516696201,1.4846619570914774
22.275264968585947,2.07046195650378,1.5038167659023594,0.490365825776922,22.257708734262277,1.552112456686531,11.115017889780107,2.0263925795926596,22.291014984656872,1.5207990647546712,6.047347751162066,1.4876614613815176
