coupler,coupler,$D^a [mM]$,$D^a [mM]$,$I_{islet}^a\ [pg/islet]$,$I_{islet}^a\ [pg/islet]$,$\gamma^b$,$\gamma^b$,$I_{cell}^b [pg/islet]$,$I_{cell}^b [pg/islet]$,$G^b [mM]$,$G^b [mM]$
2.697190237404853,1.069479034118772,0.5037722134809448,0.22528462772232175,2.5992433285386047,0.45047598808789,11.000489404622156,3.4992292731533965,2.061482586139419,1.426749909174115,3.2066516939701444,1.8857613488355984
2.978122330568986,0.9641818369477972,0.5075057038251478,0.2752026961875572,2.933418288506091,0.5179831566495748,11.002066420134302,2.629975472942904,2.8356868084836937,0.53624967822024,3.2355653962124675,1.4189577272209177
3.258165178823424,0.9249542834003429,0.5112347997145646,0.28411191607164227,3.22395351418672,0.5502129575196246,11.002351810523619,2.307278605551241,3.243146215823734,0.5404212229589467,3.2668944413075027,1.2482780642366644
3.537609167024914,0.9138620020257574,0.5154072864904903,0.2874124007453564,3.5057524432416685,0.5793804214639392,11.002360082273551,2.1692766704917847,3.5484740840835642,0.5807964067563933,3.300293845307388,1.1779018990049943
3.8148712755458862,0.9186716412680782,0.52004665595522,0.2892072308106086,3.7839430268461673,0.604211939464677,11.002304564064552,2.0994313317477196,3.831071938949514,0.6064523059509186,3.3346403426184863,1.144875245344872
4.0906580074322445,0.932150465100505,0.5250274458276106,0.28969425119182574,4.059895555982539,0.6279763649318061,11.002245017526988,2.0575560249987292,4.107902069534355,0.6296515152179452,3.3692299984659795,1.1273620217517804
4.365283282121018,0.9524422775251732,0.5304753200883371,0.2926373094722088,4.33489689277597,0.6545060978153399,11.00217479978306,2.03877643494128,4.382661252750084,0.6562795503857236,3.404046592772417,1.1226138066931952
4.63953889544837,0.9747338516931332,0.5362399112007036,0.2933625790105362,4.609057328242619,0.6736505779422379,11.00210584567692,2.023208978794478,4.656689531795215,0.6724485721627508,3.4388882299205545,1.1196496323812408
4.912608599298352,0.9983493853184019,0.5424087694433085,0.2947406240030906,4.882487686506025,0.6930516513977737,11.002032069534497,2.0180523861906967,4.929669799835401,0.6947610403480391,3.4738458692440157,1.1224436087823468
5.182971870318629,1.022984890238555,0.5489156658556679,0.2960928878740181,5.1535386616097885,0.7121458221523976,11.001962262047094,2.0215960299027356,5.200255217347437,0.7216899653312545,3.5088026817500495,1.1301291604839065
5.453130478066133,1.0493306588478628,0.5557345223475595,0.29740330337535303,5.423846456714303,0.7303670315116378,11.001902064735837,2.0188692762629783,5.470176562615637,0.7343711833693015,3.543692463271095,1.1342667446077173
5.722982422005496,1.0762820866102332,0.5627846536060896,0.2965080756400825,5.693593185350575,0.7412817378943035,11.001838784406441,2.0255733199415493,5.739780781858465,0.7567949928740914,3.578763627749388,1.1436755533981204
5.990378030111626,1.1015889433857622,0.5702971208954153,0.3005035652302991,5.961916297836163,0.7661290490525907,11.001810313144764,2.022611812961814,6.0072835024773585,0.7732037148623636,3.6134855446949827,1.147697603370001
6.2575330593367005,1.1271211288265457,0.5780123831229345,0.30242927531910685,6.229101508445779,0.7827217149896921,11.001793494867611,2.025748323917352,6.274211488080096,0.7968442145566108,3.64818051506035,1.15514594012575
6.522738678374352,1.1523730697783194,0.585960148014243,0.30572302110923705,6.494684323215831,0.805946307506962,11.001800501901075,2.0211481396600584,6.539435012968254,0.8092225827949634,3.6826665909821448,1.1581303157642238
6.787093213018471,1.1761151084162633,0.5941025754653959,0.3072861278837444,6.759102327228311,0.8203582042734167,11.001820414686984,2.0191538404794342,6.8036803102009165,0.8254789882069998,3.7171548095403866,1.1625205728426191
7.049228055226499,1.1989871233328748,0.6024693006403121,0.30810981860852843,7.021722649993284,0.8323382973772636,11.001861588483859,2.0198425625820566,7.065938393843874,0.8459945612353451,3.751546731689142,1.1684387925053477
7.311808454556297,1.2227120404904899,0.6110738655073753,0.3104359559291061,7.284310921320242,0.8505045988528228,11.001920545007314,2.017539749953694,7.328147713000258,0.856369407827968,3.7859226550565075,1.1725371827266138
7.57397297207212,1.2459902589886058,0.6199735649236854,0.3133472664330911,7.546630173810485,0.8666798030334204,11.002007127846326,2.0137355630451275,7.590025812578872,0.8706056970146766,3.8201758202622664,1.1757346975447382
7.833435599231437,1.2682119162729395,0.6290272280434029,0.31700952090839485,7.806632891918184,0.8885752481859892,11.002113488791695,2.015676684453287,7.849687801103705,0.8904624479168166,3.854441179371351,1.182246540091222
8.090047087705216,1.2891075605802456,0.6381902020914535,0.3193771916908032,8.06375720636517,0.9043953920689572,11.00224183101399,2.021366225957246,8.1066172757893,0.9102700565864337,3.888703327972285,1.190942757206877
8.346079863831552,1.3101550883640556,0.6476502470398116,0.3231714527307536,8.320164505164408,0.9223901260018269,11.002404488166267,2.0197225290512293,8.36251189440056,0.9210349363865019,3.9227640402494326,1.195306920252252
8.599368043248644,1.3306418390204118,0.6571939715944207,0.32462472360033956,8.57396903788403,0.9332304749167503,11.002592083580423,2.0214066019850825,8.616044649760447,0.9380886665577911,3.956811208079417,1.2015956252519837
8.854484495286785,1.3507534710977929,0.6669661955773706,0.3252965221060211,8.828835712925706,0.9394759589725663,11.002812036185851,2.0235417767211117,8.870531120705712,0.9558284608758935,3.9907461752111004,1.208145650091335
9.107305314889054,1.3704966354974204,0.6768614624493229,0.3275898161196284,9.082055919549791,0.9568582844198732,11.00305719280416,2.019109537383161,9.12339851964718,0.956085503177646,4.02471619496144,1.210653197505308
9.358443275790757,1.390145713225261,0.6868886719891835,0.3309368726605899,9.333487324847408,0.9758561464721758,11.003337514828397,2.0193320062971143,9.374614162119805,0.9754548283824003,4.0586126198666985,1.21596862662797
9.606907290670243,1.4089942986570945,0.6972225751161207,0.3324579090356689,9.582757998088967,0.9792914137720193,11.003643686435622,2.0221227582802,9.623346262686571,0.98693349837687,4.092614322887859,1.2227654601660092
9.854020999037166,1.427616451033727,0.7076572682437069,0.33575160820158984,9.830366401485879,0.9988499514436774,11.00399906693859,2.0103252215602594,9.870464777754874,0.9881526057516284,4.126240976705177,1.220744822145659
10.100296743034173,1.4448638912822214,0.7181343403083965,0.33831565018589704,10.076652366623781,1.013695267363163,11.004382496134342,2.011625188022371,10.116646737011232,1.011212080535996,4.159969586150879,1.2266141191330229
10.347034359572051,1.4632221419333682,0.7288930135347669,0.3427256167345227,10.323396232129927,1.031196108962265,11.004797639998083,2.0184710001792436,10.362968426247532,1.03025971897301,4.193750319583614,1.2358413104308992
10.590929345698028,1.480492355157621,0.7396424927652416,0.342757667367415,10.56768806127062,1.0329163109995334,11.005255584427163,2.0195592761248866,10.607039437330831,1.0421715385600383,4.227321009206963,1.2415587718408843
10.83061264622556,1.4969971823741024,0.7506315188604985,0.34634355725183086,10.808583621660011,1.0511799835793572,11.005749110032566,2.023493739956755,10.847326131776477,1.0588229873048745,4.260860725901426,1.2489958865182231
11.073417028429088,1.5143555051904416,0.761567967197384,0.34676309774596364,11.050571852638193,1.0564629260120268,11.006280757864399,2.0213622846382284,11.089322751718449,1.0606364989489894,4.294368042547837,1.2526164357806917
11.311365407007502,1.5307647171670113,0.7727140182778324,0.3500318479080894,11.289517186899229,1.0729291714855307,11.006854824290661,2.018762090679674,11.327813147670199,1.0718921911046646,4.327770456300955,1.2559319077119153
11.551107817130568,1.5473372264681666,0.7841392188001559,0.3523215144507214,11.529178876176648,1.0776182218752755,11.007470273084689,2.022016630223001,11.567006850135717,1.0932343308409298,4.361113877704096,1.2628899221382548
11.790535429276034,1.5641119621692288,0.7956688180960461,0.35528183317106127,11.768676017868303,1.091531139655204,11.00812705208755,2.026168173071573,11.806079194500255,1.1091129323473463,4.394386914376234,1.270388852236904
12.025394070161031,1.5789705056438754,0.8072780192714186,0.3577524640873266,12.004468025040948,1.1026610231355571,11.008823743338223,2.026731572337697,12.041506153557382,1.1129998590014598,4.427664284215271,1.2755690217785385
12.261429209760461,1.5949588814138478,0.8189388832776398,0.360229378407683,12.240295420086644,1.1150353132821313,11.00956953314318,2.020641220411692,12.277121204919647,1.1192845574649228,4.460702588114934,1.276559125910501
12.493769282031291,1.6087669374816334,0.8306215919051538,0.36397073966866256,12.473235756034738,1.1341903155710247,11.010358324513929,2.0218203193102644,12.509842107120036,1.1403435731374265,4.493694531855584,1.2821143443344725
12.726567446764536,1.623928966097898,0.8425804726579618,0.3664911669346945,12.706138962375208,1.1379730165632702,11.011189726851546,2.01955451915775,12.742323713147233,1.1432435938172585,4.526672286328347,1.2854011426796181
12.956315575541433,1.6377608088713052,0.8545542308947184,0.36721980901880863,12.936544263767976,1.1418681904703276,11.012065677850863,2.0192993284081213,12.972359168805134,1.1520057020499515,4.559681934803648,1.2899214259166827
13.186734573900273,1.6514823100180422,0.8666619366686962,0.3704918450931733,13.166943384678003,1.157786265760199,11.012991424808668,2.0145142387580974,13.202401450045548,1.1587675271161866,4.592510979897982,1.2915418205447087
13.413772989427345,1.6644913852131946,0.8787895393116504,0.37443332362488424,13.394541191491767,1.1756953159205388,11.013963673763637,2.014618921629678,13.4297670822783,1.175008133113173,4.6253038747207915,1.2962663111221298
13.641254686240755,1.6785189780218248,0.8910010452588243,0.3776471554093527,13.621912674861925,1.1869045319925653,11.014982640431246,2.017866099565338,13.656933100578302,1.1895374971445518,4.658088289332491,1.3029825648063016
13.866902371791465,1.6923585081517176,0.9033439293028549,0.38112633040010324,13.847949083093226,1.1990227244905407,11.016049175284182,2.0215216594830374,13.882607939382325,1.1977170923610156,4.690912553214272,1.3099219237614754
14.090072372538062,1.7043102692613514,0.9155492894409191,0.3821150170926851,14.0714516373423,1.2059916690090924,11.017166384714317,2.0229790992552203,14.106003935188314,1.205868154947822,4.723660862105359,1.3154351614107171
14.3172807657342,1.7176716911313485,0.9280219970793318,0.384118752283243,14.29791001259857,1.210665006300792,11.018335119249375,2.023175648658553,14.33215395408432,1.2137824415409995,4.756352243556449,1.320110672784739
14.53940927983187,1.7298230552792975,0.9407405804648237,0.3865006605720276,14.521201401463513,1.2157605106931375,11.01955613442961,2.018045150716598,14.554802485233017,1.2193614484721982,4.788837726916282,1.3212976470167899
14.758809664293981,1.7412058815665774,0.9535079458994427,0.3882233619598621,14.741441693832238,1.222159530064371,11.020827587939614,2.0196637012147183,14.774590151552967,1.2348063854272497,4.821367452093173,1.3268530734702246
14.979261268907921,1.7538151364245005,0.9663886389159955,0.3916216713770831,14.961806230814332,1.2359854972088604,11.022151006472537,2.024251304371332,14.994615017760148,1.2512649498982436,4.853849973219662,1.3343554616983702
15.198029367650703,1.7650141667314947,0.9793673561608744,0.393641872404919,15.180858606055832,1.2404860013665775,11.02352641070905,2.013763588457456,15.213338029967451,1.2354951411208468,4.886176673061599,1.3318363365849786
15.414034901650444,1.7768063193464536,0.9923432691076882,0.39584653927599855,15.397444827388716,1.2508432289927658,11.024956835096525,2.015902526496883,15.429655580375547,1.2562182136948208,4.9186125171757125,1.3376412092049752
15.6254078397481,1.7876798658254696,1.0054247711552928,0.39944889413165235,15.609945502721605,1.2646531488735513,11.026441074039916,2.014750504951098,15.64173152389985,1.2611723936365624,4.950956450985644,1.3412447422400284
15.840984316161357,1.7999044615676107,1.018544987002104,0.4021003474314255,15.824671375252711,1.2729354613759583,11.027979335310302,2.019247958323189,15.856312119324263,1.2844067913134052,4.983192078421014,1.3486370743385694
16.050167271485204,1.8099503933908831,1.0318608091017967,0.4058416843177383,16.03519839963806,1.2837035863231192,11.0295688352152,2.0122026697611837,16.066279895895185,1.2783064094601748,5.015219949897023,1.3482592455166618
16.261506378653568,1.8209376412104281,1.0451469500984685,0.40674395628265425,16.246188213681016,1.2846571958128323,11.031215984170037,2.016610113555157,16.27709894899041,1.2929409746491483,5.047465926239183,1.3554808910293763
16.470372184547863,1.8316023331807039,1.0584809289900516,0.40923088626473264,16.455476069163307,1.2961609145593642,11.03291634057901,2.01355087525084,16.486052858874363,1.2999530486348474,5.079420118159688,1.35771735555073
16.673780738761856,1.8401273910573175,1.0720304120202697,0.4121030594142342,16.660271760957293,1.3020136880667499,11.034676074871099,2.0205896753367463,16.690333985112165,1.3137064231850364,5.111601653802266,1.36668912454746
16.881873345949703,1.84974631322034,1.0856512806524035,0.4152390923273617,16.86756783758327,1.312021062953412,11.036488205885151,2.013129707634163,16.897344438015384,1.307104460035656,5.143471629463877,1.3658642313857132
17.0895751341079,1.8602791965171146,1.0993026358658533,0.418042978617467,17.07506161940645,1.3212610929316626,11.038360408075937,2.017730887670592,17.104652117407625,1.3299985975924753,5.175424906919229,1.373195602843908
17.294903166625083,1.8705244211065026,1.1129876791022049,0.42046605885201865,17.28077745712818,1.3290995808427668,11.04029016298915,2.023096596604076,17.310086500982113,1.3436606433644214,5.207314816952314,1.3810461747510343
17.497149107106043,1.8790639788305281,1.1268121078575446,0.42625114547775295,17.483816654435692,1.3509390756810167,11.04227939142998,2.019591497769529,17.51270435226337,1.3304459553983805,5.239215173199729,1.3827608062791268
17.692605052218543,1.886679232613724,1.1404632681218778,0.42738080247870674,17.680687001161502,1.3529245755313208,11.044326504953418,2.025270078334127,17.7093537745164,1.3601855308460435,5.270994425938653,1.3908278949765127
17.89061797319062,1.8944660969433118,1.1544232662937342,0.43186644139159885,17.878601309714636,1.365252379740955,11.04642851183396,2.0248566778196415,17.90678390618561,1.3606955250103967,5.302667738421188,1.3946699191091294
18.08978662676416,1.9030592928752426,1.1683700861330584,0.4340503865906787,18.077349760649785,1.3695511415511497,11.048586984825207,2.024831562225245,18.105325410657017,1.3710483930644868,5.334241171617064,1.398761691626633
18.29296006770329,1.913590678205438,1.1822398911161278,0.43349335059008304,18.279316542112277,1.3663671567545081,11.05079934822169,2.0189912814984545,18.307263962365564,1.3725411120692261,5.3656229186897875,1.3988004568877976
18.496446086145603,1.9241420335202388,1.1963216602000994,0.43771670401542173,18.48252710951525,1.3832255844784487,11.053079717635963,2.025012167963913,18.510182379672184,1.3918731731428393,5.397163377278296,1.4070014223472689
18.691270318910842,1.9321719868292093,1.2103596974592987,0.4387599972852915,18.67907768699214,1.3836021075193987,11.055412024810058,2.0148410206663354,18.706345423717053,1.3781038144625126,5.428409796588453,1.4039234392169082
18.88430035487212,1.939978399642743,1.2245584378457464,0.441233365547964,18.87296429352623,1.3901291975356285,11.057812920534692,2.016761755082949,18.899773024261453,1.39490860584191,5.459800906132492,1.4092154262566596
19.07702691058761,1.948248309677345,1.2388685770306591,0.44478576801085484,19.065934398845855,1.4007132922899423,11.060283881991905,2.0239978415979394,19.09237380472263,1.4048645291198063,5.491334273496352,1.4181954153850103
19.266112006356682,1.9555745986163582,1.25314892570978,0.446752742821005,19.255764968195617,1.4056421461258701,11.062807695040025,2.0226569082953945,19.28188126061302,1.407951318539977,5.522603798390469,1.4212062207265024
19.456600210170876,1.9642221221993197,1.2676428037711904,0.45261728261508744,19.44616049191418,1.425200447872689,11.065397721332715,2.024603598087466,19.47190819907593,1.4149603240150042,5.553930009199955,1.4264819828254658
19.64057934516116,1.9719067209058552,1.2819902291530758,0.45460496930580835,19.63135775323208,1.429416890999796,11.068044621705171,2.0233521946482673,19.65683484950154,1.4207567375793029,5.58510146435303,1.429506212255412
19.825988903685502,1.9797664711780556,1.2964058698030771,0.45684590310389256,19.816663049652522,1.4351683776293844,11.070745005133759,2.0218966049498226,19.84186215673969,1.4333784849157725,5.61609296562222,1.4323824762177595
20.00977556681294,1.987754278530794,1.310830966336345,0.45532632313330634,20.000690727897265,1.4238488105246254,11.073516661133306,2.0262841969048395,20.025638420160377,1.4409628426706753,5.647234796683685,1.4393231751296662
20.19090526229294,1.994747674087507,1.3254920498864025,0.4580888614762494,20.182616913175284,1.4331265445743335,11.076342274353031,2.027642541592993,20.207023685006916,1.450985588835522,5.6781866241478935,1.4441367835111258
20.375102623452104,2.0038070205511542,1.3402595369938695,0.46318809535600575,20.366234523760912,1.4501284946427648,11.07923568869199,2.0270347432549602,20.39038395861335,1.4461311675273247,5.70919886674739,1.44747988466937
20.55916433137654,2.011216096875217,1.3549749547867074,0.46741128560119644,20.550009399504194,1.4633925369838303,11.082184958549853,2.0272461741137295,20.574031734160116,1.4613045417860802,5.74003217266871,1.451437778856346
20.73830601938004,2.017526263951703,1.369650777569117,0.46795794928403606,20.73006216136231,1.4599876234066467,11.085197238839116,2.026354810126084,20.753810790884774,1.4641996220227533,5.770820795224281,1.4545589270921444
20.91486738900906,2.024754262786431,1.3844493824791813,0.4698260452148058,20.907448203881263,1.464315767617371,11.088269472480196,2.0242265405841375,20.93075613518704,1.4680643611060273,5.801522263688865,1.4567634478723614
21.09141919398047,2.0313445830466756,1.3991567559247144,0.47271959815600006,21.08400759608877,1.4775703655605783,11.091404184196172,2.0227535420184353,21.10711956847325,1.4733142616322041,5.8321776708643425,1.4594053281477815
21.265106242617303,2.0381019822605793,1.4139061705876326,0.47260757939814485,21.258225365546235,1.4708139307859187,11.0946063030427,2.0280659046620393,21.28108652963969,1.491003549631801,5.862846975585596,1.466932621686293
21.435115071906626,2.0448908165902835,1.42885674153289,0.4803691143514502,21.42929368016486,1.5020897176633727,11.097862500410153,2.0265327954167582,21.4516148852252,1.4895832826228586,5.89335937861949,1.4694922080119752
21.604701507897545,2.050083204796596,1.4437559963361484,0.48213729799490895,21.59899416643413,1.498551382705082,11.101174832563267,2.0236103059160273,21.62112567468196,1.493967626441846,5.923755350015169,1.4710177848590062
21.772085749970024,2.055230177181925,1.4587084015651963,0.4836537703230977,21.766909874454395,1.5004443057608652,11.104555014581356,2.0240192385041693,21.78868087784724,1.5002323202092789,5.9541815885671845,1.4749175309515312
21.937103815421803,2.0608439468220516,1.4737223304381817,0.4850214196408262,21.932542955229547,1.501940172506121,11.107994423892135,2.025007450209759,21.953944822473346,1.5090641389363522,5.9845258274569675,1.4792320064868427
22.10903824632468,2.066254001601183,1.4887925340360895,0.4885262772698703,22.102954737787204,1.514057740269178,11.111504090513723,2.0249880396149216,22.12426145344268,1.5056881797844035,6.014921482338228,1.4827584732729089
22.27526496858594,2.07046195650378,1.5040321720509273,0.49339575891941195,22.27013518299825,1.5259617525376903,11.115076432725672,2.021914425481125,22.291058872986437,1.5037158549537506,6.045239909626057,1.4840335887586167
