coupler,coupler,$D^a [mM]$,$D^a [mM]$,$I_{islet}^a\ [pg/islet]$,$I_{islet}^a\ [pg/islet]$,$\gamma^b$,$\gamma^b$,$I_{cell}^b [pg/islet]$,$I_{cell}^b [pg/islet]$,$G^b [mM]$,$G^b [mM]$
2.697190237404975,1.069479034118772,0.5037735058334933,0.22275070343252848,2.697190237404975,0.4453891184137882,11.00026921953705,3.4753855326656633,2.0043957655797864,1.4767855926246212,3.2059209379520817,1.872938569899906
2.978122330568991,0.9641818369477972,0.5078140563791583,0.274088750627476,2.978122330568991,0.5175830456197401,11.002955600859103,2.613499477744309,2.3567650797885022,0.9466489474433708,3.2383435006327232,1.4097246219033226
3.258165178823423,0.9249542834003429,0.5116251125009963,0.2859089630249311,3.258165178823423,0.548995509096091,11.00572599609194,2.297856688466175,2.793444693757421,0.7770934271006458,3.2777549190719144,1.2429225686527525
3.537609167024926,0.9138620020257574,0.5157924089246417,0.28765684697138083,3.537609167024926,0.5706106551657317,11.007865250032589,2.1653422240204954,3.2198382163740953,0.741141443710428,3.318343742068654,1.1761175951828804
3.8148712755458996,0.9186716412680782,0.5203665402359501,0.2876749989210684,3.8148712755458996,0.5927811030194216,11.009553305103124,2.095342338420693,3.6118425827389316,0.7573877874206542,3.3583751615103834,1.143874059608592
4.0906580074322685,0.932150465100505,0.5254326931148473,0.2900897603660316,4.0906580074322685,0.6188102271960053,11.010861951683834,2.061093808127802,3.972672233039613,0.7910654160261573,3.3978121998103377,1.1313345447942025
4.365283282121044,0.9524422775251732,0.5309077741773108,0.2903788399729949,4.365283282121044,0.6351462699779029,11.011936655589462,2.040153159017201,4.308396314602912,0.8269501232606049,3.436604011027058,1.1261631198832718
4.639538895448386,0.9747338516931332,0.5367909022746193,0.2939673631905107,4.639538895448386,0.6642867771955843,11.01284899343448,2.029695528773503,4.625563354566501,0.8641995636562847,3.474868502336921,1.1267621104050976
4.912608599298362,0.9983493853184019,0.5429065592181108,0.29502013828839274,4.912608599298362,0.6838966153630982,11.013620053537062,2.022123082921896,4.929345656984302,0.8935809885332885,3.512831232328098,1.1287918015973166
5.182971870318649,1.022984890238555,0.5493922882772947,0.2954511940776166,5.182971870318649,0.6983756751197806,11.014309781160346,2.0195791082626866,5.222698807815713,0.9243677393225986,3.5504830383508525,1.1335782311115348
5.45313047806615,1.0493306588478628,0.5561740137421355,0.2969455064815802,5.45313047806615,0.7186376169565251,11.014931723582537,2.022378388854403,5.508535203142354,0.9556041694930749,3.587924274646031,1.141300334113473
5.722982422005512,1.0762820866102332,0.5633814523887981,0.30050476787936103,5.722982422005512,0.7401953407872193,11.015538247281645,2.018321906947182,5.788186877874132,0.9819565523161987,3.6249528129215953,1.1451233923475888
5.990378030111623,1.1015889433857622,0.5706870256291547,0.30312945090798427,5.990378030111623,0.7642132571679681,11.016100111415987,2.020686718523685,6.0634833760299065,1.010402784312525,3.6618582815878082,1.1524866699062635
6.257533059336723,1.1271211288265457,0.5782924671760519,0.30477315181885445,6.257533059336723,0.7782112822465432,11.01664525152446,2.02007198909598,6.33520705767184,1.034769035020303,3.6985356288121967,1.1580812925653836
6.522738678374353,1.1523730697783194,0.5862472470765091,0.30725915877500976,6.522738678374353,0.794803478473488,11.017195789725632,2.014610668360302,6.603562635164746,1.057254208273326,3.7348794969508843,1.1608514371008565
6.787093213018468,1.1761151084162633,0.5942648405171344,0.3086247520149867,6.787093213018468,0.8130996943424326,11.017704262017816,2.0182800947278965,6.870356147283629,1.0808772716102115,3.7713282898599902,1.1687246157014002
7.049228055226476,1.1989871233328748,0.6026581911641968,0.31063447391179744,7.049228055226476,0.8255999827144131,11.018206193983,2.0248535380598214,7.134924210046948,1.1067575418715934,3.8076783804032726,1.1782816257244435
7.311808454556316,1.2227120404904899,0.6112611532081212,0.3120899534881036,7.311808454556316,0.8387427264169134,11.018724644987179,2.0238124251007648,7.397505899219949,1.1270198299415692,3.843764929690162,1.183397554429543
7.573972972072127,1.2459902589886058,0.6200576683614952,0.3145403542593953,7.573972972072127,0.8570026779148331,11.019250341618275,2.026359190433957,7.658881998034908,1.1519546122500506,3.879709749174988,1.1905894283229146
7.833435599231472,1.2682119162729395,0.6290268357381867,0.31677093319910593,7.833435599231472,0.8726179732289316,11.019778886597594,2.019315558290544,7.918624939591218,1.1630391621315204,3.915545462294148,1.19200097018425
8.090047087705226,1.2891075605802456,0.6382215223931077,0.3188187956669982,8.090047087705226,0.8854643169167508,11.020329874191102,2.02032331958597,8.17639125479237,1.1893328581763756,3.9511708550160978,1.1982122196612455
8.346079863831564,1.3101550883640556,0.647688493502372,0.32202632457575325,8.346079863831564,0.9017351447591778,11.02088507209015,2.019777499883181,8.432510592526084,1.2091117110356135,3.98670321969984,1.2033987183268937
8.599368043248642,1.3306418390204118,0.6571378221509948,0.3225984296515181,8.599368043248642,0.9119734053049862,11.021440267054853,2.0243831124107285,8.68715867367242,1.2303310945888617,4.022268705951937,1.2115857530324938
8.854484495286762,1.3507534710977929,0.6669722150298579,0.32617481067727333,8.854484495286762,0.9281730306175748,11.022025524210697,2.0230148139227824,8.940590545968867,1.2480187685323374,4.057603978096437,1.2161992829894421
9.107305314889036,1.3704966354974204,0.6768300832045303,0.32868972979153266,9.107305314889036,0.9443794925466149,11.022623652350465,2.0220200369443533,9.193014425586476,1.2637433691098032,4.092910958597588,1.2209552322875532
9.358443275790759,1.390145713225261,0.6867387309305472,0.330027242032806,9.358443275790759,0.9557240387569181,11.023246959775449,2.0217889310802395,9.444034250906313,1.2823991143110711,4.128086215437408,1.2261599645394434
9.606907290670248,1.4089942986570945,0.6970004558449735,0.3328604055542357,9.606907290670248,0.966905052027297,11.023893493513363,2.0237386446731915,9.693244393445823,1.3039086439711511,4.163137654937179,1.2326691469985542
9.854020999037171,1.427616451033727,0.7073424215154851,0.33505767634005357,9.854020999037171,0.9796968186691143,11.02455658415789,2.0197589181773123,9.94096295153861,1.3132756211774634,4.198165168141136,1.2354456977138466
10.100296743034146,1.4448638912822214,0.7178997223931307,0.3390717006216402,10.100296743034146,0.9979464680801101,11.025254153252847,2.015984331302585,10.187249157961684,1.328043678143899,4.233031245190273,1.238345412158758
10.34703435957206,1.4632221419333682,0.7285395662952749,0.3422466587683503,10.34703435957206,1.0123836163522104,11.025968978526308,2.0254714138703784,10.433024719895371,1.3555011029972053,4.267967708524715,1.249378699341691
10.590929345698033,1.480492355157621,0.7391575724485249,0.3421614193505698,10.590929345698033,1.0156063740084078,11.026719321183762,2.022597338809503,10.676829755634603,1.3671970181202102,4.302682769699272,1.2527478851739262
10.830612646225541,1.4969971823741024,0.7499759767534894,0.34471313494114564,10.830612646225541,1.0305156898434684,11.027502023460935,2.0220195594522825,10.91848833373022,1.3846333935249933,4.337271346384833,1.2575207693906842
11.073417028429077,1.5143555051904416,0.7610135193452557,0.34880665916749914,11.073417028429077,1.0469590699174327,11.028318458900017,2.0212888620998837,11.159304206513333,1.402119055389564,4.371728946641957,1.2621606041968465
11.3113654070075,1.5307647171670113,0.772129828060145,0.3499827971142396,11.3113654070075,1.050430317456173,11.029161857707166,2.017126819691563,11.398424350597379,1.4110457905957388,4.406158701399635,1.2645504930170548
11.55110781713058,1.5473372264681666,0.7835375520282878,0.352190364922183,11.55110781713058,1.0576212166254038,11.030034682722691,2.0213887064285125,11.637146533806591,1.4295033937604558,4.4406479669584,1.272197550888943
11.790535429276014,1.5641119621692288,0.795066693440939,0.3577756753176853,11.790535429276014,1.084063957616089,11.030949379123856,2.0203361957212804,11.874849543091953,1.4430344164867133,4.474967739150435,1.2764966934353632
12.025394070161024,1.5789705056438754,0.8066177068244486,0.35636066198763755,12.025394070161024,1.0725508980240108,11.031897082043061,2.026151113094384,12.110974768476568,1.464441855247982,4.509279581831419,1.2851240760723377
12.261429209760454,1.5949588814138478,0.8184565266544351,0.3615105089410617,12.261429209760454,1.098413673353506,11.032887343588781,2.0278740118211496,12.345771910224709,1.4820137481838378,4.543403283696565,1.291158590943585
12.493769282031318,1.6087669374816334,0.8302083809171827,0.36522467734590386,12.493769282031318,1.1153145121717554,11.033921147494135,2.0222198673248877,12.578503989203911,1.4927826939839894,4.5772871240230115,1.2924537521497719
12.72656744676455,1.623928966097898,0.8420832869465235,0.3667738088789411,12.72656744676455,1.117998994406602,11.034991435905289,2.0199096851889884,12.810376011304474,1.5064237384019834,4.611137379282799,1.2958084463905883
12.956315575541415,1.6377608088713052,0.8541188873410707,0.37085839247017566,12.956315575541415,1.1360432325476697,11.036097877901938,2.017594459817791,13.040862183690553,1.5160365639044637,4.6449934805119915,1.2990758802241522
13.186734573900269,1.6514823100180422,0.8661199794177288,0.3725636430579378,13.186734573900269,1.1428134977701385,11.037246438567694,2.018753550334773,13.270505393964024,1.531050510162125,4.67881251044084,1.3045654202430508
13.413772989427365,1.6644913852131946,0.8782438884620105,0.37342810721035763,13.413772989427365,1.1453143811967288,11.038436500033473,2.0168730450910375,13.49853425835631,1.5395299486811387,4.712591199180697,1.308037077963253
13.641254686240737,1.6785189780218248,0.8905644182259642,0.3757927755801353,13.641254686240737,1.1543615566277505,11.039673338565269,2.01728505169481,13.725452539773359,1.5547923362537037,4.7462641459991195,1.3130035127873678
13.866902371791438,1.6923585081517176,0.9029816658083133,0.3776094503113957,13.866902371791438,1.1605380791255977,11.040956375686,2.014152525814742,13.950831343621596,1.5663112786376936,4.779778646337163,1.3156322515301009
14.090072372538046,1.7043102692613514,0.9155732566374567,0.38409921581303935,14.090072372538046,1.1885504803426592,11.042278778167397,2.0177347301760573,14.175079193344875,1.5802861556460508,4.813421616044689,1.322571487740876
14.317280765734216,1.7176716911313485,0.9281571347135755,0.3849829482476298,14.317280765734216,1.184649138628759,11.043652705314424,2.019943126323949,14.398969460846262,1.5971676286682515,4.846886961825093,1.3286473808278407
14.53940927983187,1.7298230552792975,0.9406803113557451,0.3858801840483929,14.53940927983187,1.1932969821270805,11.045072780408999,2.0173844412277835,14.621363314515754,1.6047241390841216,4.880277637383462,1.331524031199431
14.758809664293976,1.7412058815665774,0.9534490703550166,0.38981181271688137,14.758809664293976,1.2078133600564602,11.046541142407381,2.0171596622517645,14.842064845136766,1.6173217567460039,4.913604148315002,1.3359197378460022
14.979261268907955,1.7538151364245005,0.9663628615113354,0.39425777722423483,14.979261268907955,1.2216800030105102,11.04805935856083,2.021258593171832,15.061568517501536,1.6396394813789643,4.9467831257139965,1.3432035136001703
15.198029367650717,1.7650141667314947,0.9790936499019804,0.3949644773553704,15.198029367650717,1.2253648035596258,11.049623760853672,2.022821132045124,15.279874641982696,1.651870874409858,4.979933828455075,1.3487311901033925
15.414034901650451,1.7768063193464536,0.9921792173010054,0.397064083321619,15.414034901650451,1.227412270424245,11.051238556804321,2.025387334037731,15.496492222861868,1.6686982638055947,5.012951904180794,1.3549339619111833
15.625407839748073,1.7876798658254696,1.005265135580875,0.4004015921135789,15.625407839748073,1.2429696244285835,11.05290077678816,2.031053842145185,15.711050456410916,1.6819753167736153,5.046072601677871,1.3631437004229894
15.840984316161368,1.7999044615676107,1.018412661556037,0.4032687985802977,15.840984316161368,1.2517160671732623,11.05461717875088,2.024377828732879,15.924491794871518,1.6855355060868542,5.078889488744645,1.363080440878342
16.050167271485225,1.8099503933908831,1.031553875016523,0.40482334877455345,16.050167271485225,1.2569253064632533,11.056384388905931,2.0222313449327993,16.136027107168747,1.695272683828878,5.111701699305365,1.3660072290988414
16.261506378653593,1.8209376412104281,1.0449544508172335,0.4067967594462612,16.261506378653593,1.2586105971535941,11.058204325699139,2.0278570001068985,16.346831630053558,1.7131971332263205,5.144569415497267,1.3741602267592645
16.470372184547845,1.8316023331807039,1.0584938566562727,0.4118227663616825,16.470372184547845,1.2782869050719978,11.060076913588974,2.02729087124226,16.555969569807232,1.7221292826289967,5.177294384840801,1.378103251344798
16.673780738761877,1.8401273910573175,1.0718112507052804,0.41276750736879514,16.673780738761877,1.2819236298677408,11.062002324514463,2.028642192381427,16.76263855965828,1.7350528768250886,5.209950328741317,1.383333450518921
16.881873345949742,1.84974631322034,1.085495160544381,0.4185175326820373,16.881873345949742,1.300088779095948,11.063981423446977,2.027912820920461,16.968677778948834,1.7451515169065135,5.242505620431268,1.3871179795083355
17.089575134107914,1.8602791965171146,1.0990002769455798,0.41995154131091705,17.089575134107914,1.3033721437645918,11.066013614942557,2.0215676272114567,17.174003977188253,1.7500750542133097,5.27487815761518,1.3870253519691205
17.294903166625097,1.8705244211065026,1.1126352226827143,0.4212818981486492,17.294903166625097,1.3054181939455758,11.068101516543452,2.022054568189438,17.378608329100324,1.7632136866336152,5.307274726292284,1.3915693660830692
17.49714910710601,1.8790639788305281,1.1263446325414075,0.4245588948085686,17.49714910710601,1.3188495506961178,11.070246193022045,2.0266343265660414,17.581825161427926,1.7776733382314873,5.339710828306677,1.3988967331739854
17.69260505221855,1.886679232613724,1.1402246724059386,0.4280339218276194,17.69260505221855,1.3264808551215814,11.072444670932898,2.023891483220897,17.781832628552248,1.7817994964384984,5.372001651641104,1.4011478778568753
17.890617973190647,1.8944660969433118,1.1541186484813535,0.42791485238102206,17.890617973190647,1.3198772957591554,11.074698761008355,2.0221819699952692,17.98035220060575,1.7915680718081979,5.40418261357404,1.4041029753179797
18.08978662676416,1.9030592928752426,1.167983494977469,0.4292499587709953,18.08978662676416,1.3289265567233408,11.077010618400811,2.021781233293533,18.178235461363528,1.8001962238120686,5.436359312536073,1.4079168202239547
18.292960067703262,1.913590678205438,1.182045275586084,0.4319481346032407,18.292960067703262,1.3353445704407303,11.079381720857501,2.0204674679288357,18.376716818837462,1.806725829380382,5.468496946684335,1.4110620395700886
18.496446086145603,1.9241420335202388,1.1961826513479292,0.4366822747557169,18.496446086145603,1.3529636580639661,11.081815465709866,2.02410058572583,18.575875349409294,1.8197701502650283,5.500661950286732,1.41764690306225
18.691270318910842,1.9321719868292093,1.2103190625538498,0.440306841731664,18.691270318910842,1.3633250749754178,11.084308017036088,2.031993487995243,18.772903171235644,1.8410185023766337,5.532747918919108,1.4272459331691627
18.884300354872153,1.939978399642743,1.2245661871238314,0.4453719011432728,18.884300354872153,1.3792995312501732,11.086851629526203,2.0296317856726565,18.967467540923156,1.8486918171891744,5.564577646599553,1.429632829599568
19.077026910587588,1.948248309677345,1.2388171682699858,0.44395073360619935,19.077026910587588,1.3630825700572267,11.08945865985612,2.0299557075671815,19.160897506554154,1.8547617170555017,5.596480530903302,1.433833694950454
19.26611200635667,1.9555745986163582,1.253145164601917,0.4487244245124721,19.26611200635667,1.3881618633806134,11.092117702171562,2.0254178282508923,19.351921874342906,1.8619038048676715,5.628129678363414,1.434611989939475
19.456600210170887,1.9642221221993197,1.2673047403795001,0.44991085478604725,19.456600210170887,1.3905334167997965,11.094840065658142,2.0252220465701902,19.54209342464947,1.8705803454416199,5.659827740972129,1.4383961445298288
19.640579345161164,1.9719067209058552,1.2817086256123968,0.4512580966068404,19.640579345161164,1.3883742592536097,11.097615393569324,2.022254898688688,19.729423675842412,1.8795374059782688,5.691329776507757,1.4402077426997795
19.825988903685502,1.9797664711780556,1.2962694190275594,0.4530167867092644,19.825988903685502,1.390166868816314,11.100459881209936,2.0295058978209544,19.915705064767703,1.8962489169865062,5.722982363758153,1.4492439419447316
20.009775566812944,1.987754278530794,1.3108451368946945,0.4600045911614036,20.009775566812944,1.4213717274348918,11.103360589838466,2.0324516146409373,20.10023209893991,1.9075040699992734,5.754491895745472,1.455218101260747
20.190905262292894,1.994747674087507,1.3251040479168004,0.4581506120306157,20.190905262292894,1.4086253832152285,11.10632198545957,2.0369640032226766,20.28296305080061,1.9209875143595552,5.785951451649031,1.462305565610184
20.37510262345216,2.0038070205511542,1.3396739678579364,0.46219222156532747,20.37510262345216,1.4230769116731667,11.109343798980078,2.0337210848953733,20.465186057103747,1.919200677356351,5.81734587336115,1.4637738509557277
20.55916433137653,2.011216096875217,1.3543019755675356,0.4644041815318854,20.55916433137653,1.424870784162734,11.11242484111713,2.031330159727071,20.647035129340274,1.9256480822900266,5.8486259573419375,1.4658535225057843
20.738306019380005,2.017526263951703,1.3689134913822891,0.4670083366566184,20.738306019380005,1.4342732565368592,11.11556888991407,2.028628667698226,20.827315274373813,1.9293657506880906,5.879875451911238,1.4676597369704212
20.914867389009043,2.024754262786431,1.3837810497186571,0.46852631597621125,20.914867389009043,1.429161408480556,11.118768346395576,2.0272215511247853,21.005555116541082,1.940624991735328,5.9109703328173895,1.4704046404722393
21.091419193980503,2.0313445830466756,1.3987302443519627,0.4730190725003313,21.091419193980503,1.4458690706466297,11.122036774153578,2.0342353774578426,21.182623985262357,1.959343859391435,5.942130535054063,1.4792250944183178
21.265106242617314,2.0381019822605793,1.4134414300276892,0.4755529499874631,21.265106242617314,1.4567542495305195,11.125364864020518,2.0338494572069075,21.357789403807054,1.961762100212004,5.973208805855621,1.482628883297117
21.435115071906644,2.0448908165902835,1.4284579853067747,0.4769681746122162,21.435115071906644,1.4494862325630642,11.12874024680721,2.027004888148142,21.530385703107367,1.963249584697434,6.004029467515625,1.4813242865260765
21.604701507897545,2.050083204796596,1.443354288463003,0.48013780373802123,21.604701507897545,1.4655540684806578,11.132195279073906,2.033162020562608,21.70173426305618,1.9777511090088724,6.0350399709823614,1.4894606688183747
21.77208574997003,2.055230177181925,1.4583180274833782,0.4827162687358676,21.77208574997003,1.4697595784172761,11.135693396730332,2.030481696845045,21.87069540457467,1.9849108891934268,6.065756660627064,1.4911462686341261
21.937103815421814,2.0608439468220516,1.47335727406445,0.48663930213123996,21.937103815421814,1.4813150393921142,11.139247882024984,2.0301925739658797,22.037615422323892,1.996765451278814,6.096373229322216,1.4945578343451813
22.109038246324676,2.066254001601183,1.4883049770605754,0.4855659481748038,22.109038246324676,1.4707537872688032,11.142867681260945,2.0292731872387644,22.205092383596952,2.001328398522799,6.1269940225064135,1.4974420318847883
22.275264968585926,2.07046195650378,1.503320493042732,0.4900949661239171,22.275264968585926,1.4925328104628979,11.146542744750946,2.0247731718853483,22.37126680502479,2.002848200933191,6.157483591426241,1.4976583661399492
