coupler,coupler,$D^a [mM]$,$D^a [mM]$,$I_{islet}^a\ [pg/islet]$,$I_{islet}^a\ [pg/islet]$,$\gamma^b$,$\gamma^b$,$I_{cell}^b [pg/islet]$,$I_{cell}^b [pg/islet]$,$G^b [mM]$,$G^b [mM]$
2.6971902374049823,1.069479034118772,0.5037709064540513,0.2235050028351974,2.2562242724482062,0.4472598757113701,11.000256795669552,3.472349871447236,2.00320920861889,1.476817053005391,3.2058732390276443,1.8713065476787645
2.9781223305689752,0.9641818369477972,0.5064398999259486,0.2746665943853435,2.406467948693026,0.5656728918499446,11.002687399951155,2.6127512802044057,2.286334776743765,1.0095555198304926,3.2376319051374782,1.4092538093069988
3.2581651788234263,0.9249542834003429,0.5089335927660679,0.2841758413256928,2.5373587885588718,0.603776952364721,11.005486339093194,2.3001578061855947,2.658104744809848,0.8572873656445474,3.277225534861402,1.2439682900227629
3.5376091670248924,0.9138620020257574,0.5116312393938828,0.2871201359799464,2.6698632658705783,0.6259699922249922,11.00796377904729,2.1631032531764007,3.048586317223906,0.8164225740731076,3.318838504006788,1.1746343078680523
3.8148712755458614,0.9186716412680782,0.5146088999089854,0.2863458819047938,2.8079876846411382,0.6387299849204686,11.010081588077032,2.094821394177239,3.4303035607352657,0.8253183478953698,3.360458496350166,1.143307860887583
4.090658007432199,0.932150465100505,0.5178999263287007,0.28851950424478306,2.9529299721121225,0.6583434856507662,11.011894194168034,2.0580993845556206,3.7956332540143167,0.856503648193331,3.4014725298432023,1.1295706054612926
4.365283282120966,0.9524422775251732,0.5214631765515952,0.28791735897549525,3.1028397729116337,0.6715279907460748,11.013394191166503,2.0446530502489404,4.1454181571492486,0.8969945154751607,3.4419457954114216,1.1286819383923297
4.639538895448334,0.9747338516931332,0.5253645186542335,0.29239205948101465,3.2599777449071343,0.6969350054390768,11.014719694857869,2.0300353359315206,4.479754918036298,0.9343290888861709,3.481688624542836,1.1271664039007727
4.9126085992983315,0.9983493853184019,0.5294791952206983,0.29016891256086463,3.419691794034594,0.7061865298688382,11.015869574064446,2.021621329303767,4.802052357852521,0.9705723390307454,3.52096070305861,1.1289704188043042
5.182971870318588,1.022984890238555,0.5339139601622093,0.294424197027129,3.585562125911238,0.7315906184814123,11.016893221377241,2.0190435258109933,5.113710415802322,1.0078256079478243,3.559797354016283,1.1339599953623154
5.4531304780661,1.0493306588478628,0.5385770672287278,0.2959022519323176,3.754448664328486,0.7498903626123559,11.017807503359645,2.025838776970777,5.416772765312037,1.0485256546592707,3.598309975504329,1.1441647654790417
5.722982422005463,1.0762820866102332,0.5434859695581287,0.2967070055400588,3.927022007573224,0.7662783556697726,11.018686523018198,2.019443481763514,5.711183098400401,1.0791050640884121,3.6362477026210813,1.1468524875753399
5.99037803011163,1.1015889433857622,0.5486935695280353,0.2961871669824767,4.104829474556892,0.7784829384572853,11.019477984403725,2.021366461003405,6.000157323061482,1.1110551367612367,3.6740554581163156,1.1540960223669485
6.257533059336658,1.1271211288265457,0.5542581780123991,0.2972379179512133,4.289490258235795,0.7945330270301524,11.020244278562657,2.0199706795166987,6.283404559793951,1.1407691554190504,3.711500564141793,1.159403366263444
6.52273867837435,1.1523730697783194,0.560060137015488,0.29937348925214924,4.4771261247219,0.8142003111237395,11.020990038537507,2.014035013162186,6.561617643360069,1.1663687938496745,3.748609556001927,1.162005230743989
6.787093213018478,1.1761151084162633,0.5660586966856793,0.3015157841893664,4.666457453814155,0.8338918495249357,11.021701565819573,2.0119171454387508,6.836295672709918,1.1927212505458598,3.7855628717517478,1.1666862975264338
7.049228055226544,1.1989871233328748,0.5723020675820891,0.30217599359156333,4.858868168125093,0.848644657118711,11.022382617214015,2.0118825671340557,7.107848463090168,1.2177618255730913,3.822412648774612,1.1724661037504092
7.311808454556258,1.2227120404904899,0.5788287791362938,0.30458707601314605,5.0555323022311045,0.8681432403920285,11.023054308997333,2.0128172313658355,7.376631028005592,1.2432526754132633,3.859098930969542,1.1787701133449593
7.573972972072106,1.2459902589886058,0.5855954411066415,0.3072944590801414,5.2551793085678495,0.8884390574995761,11.023718500749396,2.0193183679764366,7.643120323184317,1.2733950145728488,3.8956524026363812,1.1883280693901006
7.8334355992313665,1.2682119162729395,0.5924694354244143,0.3072820631455736,5.454228467731947,0.9009301440265534,11.024400276971077,2.01709148098053,7.906248976862234,1.2971754379298777,3.931857408137949,1.1927283941409215
8.090047087705193,1.2891075605802456,0.5996834431054188,0.30966602327472686,5.658694654756106,0.9193964619715933,11.025059452047795,2.0196448173228863,8.167775469610755,1.3200601245151606,3.968109123426224,1.199816167950718
8.346079863831527,1.3101550883640556,0.6071213880412774,0.31179865156559133,5.865575297384143,0.9371869252294903,11.025722974494178,2.02316444090117,8.427388654536992,1.3434275881820517,4.004272277851469,1.2074560123890208
8.599368043248644,1.3306418390204118,0.6147464537013095,0.31410587661633826,6.0737885693142495,0.9555458273090343,11.026398115379779,2.023531448928121,8.68472854228145,1.3636626951305812,4.040301267924363,1.2131808427085222
8.85448449528683,1.3507534710977929,0.6224560523960428,0.3160671993378313,6.280981294396406,0.9730374419003758,11.0271050031821,2.020929744921534,8.939879453572267,1.3852083471442236,4.07604045294883,1.217144762929026
9.107305314889093,1.3704966354974204,0.6304159200124851,0.31771618113229644,6.491188260974887,0.9883578091116265,11.027820394138622,2.0184012154991704,9.193489617796399,1.4045387718749858,4.111686341872529,1.2210519738684256
9.358443275790755,1.390145713225261,0.6385513330001839,0.31827425434121626,6.70270262504248,1.000133620818765,11.028549781532611,2.022591470657516,9.445580845217677,1.4306633961711828,4.147237103031683,1.2290081089487017
9.606907290670232,1.4089942986570945,0.6469474418909783,0.3218842945166113,6.917384644875514,1.021379035451658,11.029301762700857,2.019785532193336,9.695392570087158,1.4490468495046653,4.18257521712291,1.2326521745377543
9.854020999037155,1.427616451033727,0.6555052025475157,0.3240056917967427,7.132824052810226,1.037630462063765,11.030053931310135,2.020292236842667,9.944509005592893,1.4647748961473621,4.218041447479639,1.2381807239581029
10.100296743034226,1.4448638912822214,0.6642096409491502,0.32586761350821947,7.348734990706157,1.052975337159788,11.03084700266457,2.015510980021262,10.191491418629466,1.480200700608568,4.253240801693656,1.240496731456546
10.347034359572032,1.4632221419333682,0.6730181457258344,0.32583482190196256,7.564262298964741,1.061839688473334,11.031668915720498,2.0156001097940366,10.437094998659388,1.5027630503823206,4.288284248303175,1.2458017441940519
10.590929345698015,1.480492355157621,0.6821667895063056,0.3307141602448062,7.7845696110911415,1.086210138946622,11.032503135432734,2.0148727126407464,10.681643264104157,1.5185851350759354,4.323354833214615,1.2504751032523098
10.830612646225601,1.4969971823741024,0.6913460722579717,0.33357498570049887,8.002667712604598,1.1043695082902425,11.033370893179333,2.0148271867659955,10.924031222813039,1.5378393022788208,4.35825795209526,1.2555812000987094
11.073417028429109,1.5143555051904416,0.7007617994418214,0.33611011332965834,8.223203113027564,1.1204626157741786,11.034253661325263,2.0191789310621986,11.166125336478295,1.556264173204556,4.3932771569724665,1.2633378544398313
11.311365407007504,1.5307647171670113,0.7101781779363388,0.33632676877116446,8.441103141511048,1.1292971486067276,11.035170460550217,2.0182336027668546,11.406450150587732,1.5691502896560905,4.428201189552687,1.2677596956507837
11.551107817130541,1.5473372264681666,0.7199048512758935,0.3381343918390477,8.662976450943392,1.142281236810593,11.036133757363785,2.019458242939313,11.645071999863935,1.5911520561888404,4.462873284892035,1.2736155027029246
11.790535429276078,1.5641119621692288,0.729799565791333,0.34001272112317527,8.885885241694696,1.1556519026920218,11.037126398710265,2.018662914628712,11.88265901095146,1.6077413509830465,4.497470637756378,1.2781138294309597
12.025394070161047,1.5789705056438754,0.7397758933737022,0.34210390448104466,9.107826273517288,1.1699920313863503,11.038153242533449,2.0152694746323814,12.118622963186542,1.6206906336401237,4.531967087022619,1.2809042621867575
12.26142920976048,1.5949588814138478,0.7498850662609365,0.34477143676221506,9.329933683832927,1.1859194575628653,11.039212466399679,2.0163316837767757,12.353860426102086,1.6374139215651597,4.566466022276042,1.2864798544927147
12.493769282031225,1.6087669374816334,0.7601770512879198,0.3483907048488025,9.553123880872432,1.2047152322097985,11.040308261212843,2.0179329644180006,12.58758745843605,1.6543299898981565,4.600899260903433,1.292377243182915
12.726567446764502,1.623928966097898,0.7706011946138893,0.35051447483446535,9.77646876904156,1.2179997793890405,11.041447708195463,2.0184591964081577,12.819702969239,1.672723049037098,4.635146595059184,1.2975971433783744
12.956315575541476,1.6377608088713052,0.7810594063434801,0.35191578030994436,9.998027795412563,1.229063924050418,11.042625799185737,2.0180034196450776,13.050108765561038,1.6895514163479362,4.669266888983233,1.3021435849981453
13.186734573900281,1.6514823100180422,0.7918282712827938,0.3559989383554124,10.22316447145826,1.2485631072267738,11.043842961862953,2.012577576921456,13.279358319913051,1.698587264240382,4.7032954776461775,1.3033964622722722
13.4137729894273,1.6644913852131946,0.802689600660242,0.35895507190438,10.447584271409724,1.2643257738825815,11.045101205700416,2.0194780581533793,13.507269345696477,1.725097057916035,4.737259005921081,1.3126636182003277
13.641254686240801,1.6785189780218248,0.8136374902066633,0.35792901211839223,10.67122808873383,1.265472431187849,11.046399914110514,2.019609762887972,13.733628798766174,1.7408667828357283,4.771074338345559,1.3174765101094896
13.866902371791534,1.6923585081517176,0.8247341816810788,0.36297309280187096,10.895303107682212,1.2889747317620985,11.047736004528875,2.025295015930571,13.959348220159297,1.7593647063961766,4.8049691600520354,1.3258566291940543
14.090072372538105,1.7043102692613514,0.8360098166450446,0.366320841501086,11.120094314698427,1.305221555549369,11.049116230301289,2.023370522828987,14.18373705216411,1.7661491335806847,4.838828633205748,1.3291965671217465
14.317280765734159,1.7176716911313485,0.8473092813875799,0.3666658393181455,11.343177964438118,1.310903441889326,11.05054778022678,2.0233377712040173,14.407615607821942,1.7796925384786975,4.872585535296477,1.333802389622941
14.539409279831872,1.7298230552792975,0.858744574038535,0.37042485632988653,11.566406563963378,1.3290559360490526,11.05202635632144,2.0265120931590856,14.630129583628923,1.7983471699046125,4.906259728617341,1.3405240564978647
14.758809664293997,1.7412058815665774,0.8701876953330959,0.37235529746161566,11.787384185300516,1.3403563468369057,11.053551198939443,2.0244584576873206,14.850897455033875,1.8090546984790044,4.939827698069884,1.3437365239259194
14.979261268907834,1.7538151364245005,0.8818102923534112,0.3739300427153692,12.009335888089316,1.34958302162712,11.055124732313542,2.0251296110961565,15.070561838286826,1.824667861732441,4.973310352090379,1.3487450010433324
15.198029367650664,1.7650141667314947,0.8936533592292641,0.37631604337053914,12.232949115524288,1.3614647988606747,11.056747369792554,2.017828552672592,15.28859383450584,1.8309614753326389,5.006603269905359,1.3483897171042147
15.414034901650426,1.7768063193464536,0.9055218463837691,0.38124224940191503,12.454726951068672,1.3835156860767026,11.058417642977517,2.0183232792057098,15.505472695629434,1.8470601738629153,5.0398827000923445,1.3532060544142213
15.625407839748178,1.7876798658254696,0.9174770700016884,0.38442250362410507,12.675474739625715,1.3983508724434364,11.060135430954334,2.019732201945839,15.720253448810876,1.8634187654790793,5.073072395468339,1.35860792559626
15.840984316161332,1.7999044615676107,0.9293752433975274,0.3839918067811796,12.893196370541425,1.4001057965214045,11.06190241201127,2.0211117155325553,15.934208527693427,1.877399212097422,5.106226039968504,1.363945852638961
16.050167271485147,1.8099503933908831,0.9414885240167415,0.38507870554193563,13.11226990580767,1.4067505756050813,11.063719814086115,2.0244130470853348,16.146448971423183,1.8929377140098655,5.13934716198741,1.3705608012393171
16.261506378653497,1.8209376412104281,0.9539879120176603,0.38940875260082736,13.335552058963398,1.424535200745015,11.065589310007656,2.0226661507574413,16.357290040968405,1.9027313973381668,5.17233264671372,1.3737359695452234
16.47037218454791,1.8316023331807039,0.9664279802288223,0.3930215909719819,13.555603833661495,1.4408972335367403,11.067511332082981,2.026791215314315,16.566895633323867,1.9210841837276909,5.205277247064462,1.3808948770102674
16.673780738761778,1.8401273910573175,0.9789020418731772,0.39522395314681597,13.77369662228747,1.451612728799763,11.06948424300958,2.020452308017603,16.7742455364825,1.9227178148701252,5.2381169395707605,1.3808450224520226
16.881873345949593,1.84974631322034,0.9914701329441283,0.39927398164265615,13.991170997629771,1.4691082530314141,11.071513217810313,2.0182705190804358,16.98107224551648,1.93057395333304,5.270964940411598,1.3836005982113961
17.089575134107864,1.8602791965171146,1.0040508765463876,0.3985655720681457,14.206785952654624,1.4683600961175294,11.073597247096906,2.0215125496406623,17.186920269638968,1.949601209227628,5.303695050315265,1.390104654550345
17.294903166625048,1.8705244211065026,1.0168780148558536,0.4034281202685795,14.424248519944852,1.4883738305354846,11.075734104758242,2.02531852765538,17.391556815061293,1.9673116971620117,5.33635309875966,1.3969713255908283
17.497149107106146,1.8790639788305281,1.0298123281113452,0.40523639341112255,14.641139305588979,1.4964094875169833,11.077924572253186,2.0249371145003834,17.59467531407651,1.977285991569636,5.368930086033716,1.400903944186911
17.69260505221853,1.886679232613724,1.0426955322115057,0.40729128924637803,14.8548945475737,1.5063106331778249,11.08016848534893,2.022397552374104,17.795267518195,1.9863948546129335,5.40136660913448,1.4033226861400443
17.890617973190523,1.8944660969433118,1.0557543998859948,0.41192036242381447,15.069066074854232,1.5250897667423278,11.082468218103607,2.0247948241631266,17.99454498965317,2.0016924747628004,5.433776901955356,1.409140668824929
18.08978662676417,1.9030592928752426,1.0686729514799598,0.4125856207561626,15.279096763210275,1.529417806381657,11.084823534908,2.0223165802538565,18.192769688516815,2.007875611169913,5.466122525362534,1.4115104884351455
18.292960067703376,1.913590678205438,1.0819416139007918,0.41482846115423866,15.492558415839868,1.538151349414934,11.087236474774762,2.0195839705454204,18.390831068472508,2.0156566373946783,5.498378705706626,1.413681520390772
18.4964460861456,1.9241420335202388,1.095223685387178,0.41801115178880544,15.70455167046707,1.5514583388035454,11.089710388058165,2.0262788502556575,18.589133943727244,2.0360930154388277,5.530659690281714,1.4224491419940626
18.691270318910846,1.9321719868292093,1.1085395072509507,0.41993490425616675,15.914927380839991,1.5597592954937567,11.092242105460475,2.0284448590095017,18.7858201733431,2.0468289331515996,5.562888512821848,1.4280017382199919
18.88430035487202,1.939978399642743,1.1220245078179585,0.4233718402608801,16.12566321489827,1.5733316852606254,11.094828880432518,2.0310073214050623,18.980556739471172,2.0632574909428687,5.59493211568752,1.433865132585368
19.07702691058768,1.948248309677345,1.135551594151136,0.4250881399088638,16.33496530278636,1.5804395736931862,11.097471671102587,2.0307786783519397,19.173804192831078,2.0740270864871193,5.626881399005553,1.4377134236322724
19.266112006356707,1.9555745986163582,1.1492577175060659,0.4297243424451495,16.544658287720367,1.5983743611967585,11.100172150881646,2.0272500073076114,19.36532009288086,2.078890385821665,5.658756565967354,1.439170423008107
19.456600210170834,1.9642221221993197,1.16268044828164,0.4300685751827992,16.748401164594625,1.6012234432668275,11.102933390849179,2.025666134855369,19.555810967435573,2.086723989039475,5.690594724918027,1.4419739469768091
19.640579345161143,1.9719067209058552,1.1761334337224216,0.43010619448670184,16.950449983391792,1.6021576424586383,11.10575652133595,2.024527159298229,19.744388582796752,2.093292643970852,5.722422815491479,1.4450506837171242
19.825988903685502,1.9797664711780556,1.1901059289034264,0.43249842702601254,17.157657807063195,1.609885855699591,11.108642562672708,2.0284654948553063,19.93162730602925,2.1077956487958116,5.754232249806829,1.4517521714329107
20.009775566812934,1.987754278530794,1.203970168779162,0.43473602775402326,17.361450849187907,1.6190265747031178,11.111582856895563,2.029848669580061,20.116940520194696,2.1213853047786233,5.785864569447978,1.4566364162774823
20.19090526229307,1.994747674087507,1.218095512324139,0.44077804695005846,17.566540389377266,1.6415189596448994,11.11458190943659,2.0298233301107387,20.300509266992496,2.130963493138353,5.817430654059433,1.460467253567341
20.37510262345191,2.0038070205511542,1.2319286377466567,0.44025215980355475,17.765830163992348,1.6402364421483016,11.117637208156664,2.0276409662535975,20.483020705482893,2.138987618832975,5.848866031185278,1.4627234392174266
20.559164331376575,2.011216096875217,1.246015185508661,0.44306932471978433,17.96665473302522,1.65048542602042,11.120758947825038,2.0304785923415336,20.66513240607086,2.1512638315206734,5.880342039573373,1.4685589187450538
20.73830601938016,2.017526263951703,1.2602055464712036,0.4473168218825427,18.166870519176207,1.6662127160154356,11.123939147503197,2.0345916430950535,20.845641990454126,2.167103524915738,5.911711594319917,1.4753270147939466
20.914867389009128,2.024754262786431,1.2743664395361618,0.44871406892567844,18.364673151559863,1.6712233289485334,11.127180496917209,2.035651915789858,21.024499988652117,2.1756901863969964,5.943029217368248,1.4798424667536456
21.091419193980375,2.0313445830466756,1.2885085327985395,0.45167074648598576,18.560342052435736,1.6825437354914012,11.130480242425666,2.0333142798435486,21.201896780798705,2.180635497198984,5.974236477522093,1.4818649987229786
21.265106242617268,2.0381019822605793,1.3026520543260027,0.4551238830801913,18.75406721777229,1.6954668822466195,11.133836284151318,2.0263607779987027,21.377529111003923,2.1804453589260784,6.005309791986422,1.4804827333628066
21.43511507190657,2.0448908165902835,1.3171254545195255,0.4597971348283003,18.949865228200263,1.7114761849831155,11.137264405320982,2.0310591552377883,21.551695550834022,2.195749966332926,6.03646595969748,1.4875872718552927
21.604701507897552,2.050083204796596,1.3313163735890212,0.45843984017631545,19.140256360231273,1.7063690019465505,11.140742328469639,2.0300946160410858,21.72366642669978,2.2053918645770443,6.067410573435969,1.4905484035114858
21.772085749970003,2.055230177181925,1.3459819465427119,0.46339178818942117,19.334448338782813,1.7233284337354748,11.144291249124164,2.034392636697043,21.894238106086323,2.2178590990122338,6.0984256938990615,1.497325311831804
21.937103815421768,2.0608439468220516,1.3602871489155721,0.46416494106224976,19.52226114414037,1.726590624198496,11.147891558075184,2.033950913839318,22.062568498716285,2.2264717204297617,6.129254929030784,1.5006191057877762
22.109038246324694,2.066254001601183,1.3748557901163172,0.4670908140641567,19.711554033939734,1.7362561403226873,11.151549836359488,2.036080430513337,22.230472658357105,2.240399306620098,6.159988567502913,1.5058001988876213
22.27526496858599,2.07046195650378,1.3894609560875928,0.4686876038861231,19.89948098117759,1.7411526483379152,11.155274338707175,2.033356984504869,22.39726994572413,2.2409916761201134,6.190724920961006,1.5073159124485906
