coupler,coupler,$D^a [mM]$,$D^a [mM]$,$I_{islet}^a\ [pg/islet]$,$I_{islet}^a\ [pg/islet]$,$\gamma^b$,$\gamma^b$,$I_{cell}^b [pg/islet]$,$I_{cell}^b [pg/islet]$,$G^b [mM]$,$G^b [mM]$
2.6971902374049352,1.069479034118772,0.503772224889956,0.22442013216921047,2.5992435044704485,0.4487466374296212,11.00033569951412,3.4632550053172046,2.0149386112484473,1.4604656914526715,3.2060710406179393,1.8664183593208472
2.9781223305689846,0.9641818369477972,0.5074908020847395,0.27465830313511086,2.933331062943205,0.5179333401085817,11.003002342496858,2.6068553399055063,2.6302967664418873,0.7009226576139612,3.2384976205157128,1.4063292923040236
3.2581651788234245,0.9249542834003429,0.5112524399528301,0.2859024864123694,3.2240514107643925,0.5547404222573372,11.004380648032408,2.2944374246172465,3.1339880382098464,0.579156603786655,3.273525972069115,1.2414246660983588
3.5376091670249137,0.9138620020257574,0.5154093906775925,0.2866196830792942,3.5056781368883807,0.5754919553609317,11.005015623633431,2.1600883201757153,3.511288549133366,0.6063499576802514,3.3090082575880846,1.1734214885331555
3.8148712755458853,0.9186716412680782,0.5200233774620838,0.289294623534757,3.7839079247840592,0.6063918881415419,11.005397967642375,2.0879750138644493,3.8289490875090673,0.6411893419008806,3.344497801742895,1.139551309742799
4.090658007432245,0.932150465100505,0.5250240878761341,0.28852275768131797,4.0598910792461975,0.6232253174011372,11.005617016193328,2.054705605228358,4.121353706898269,0.6651379559778244,3.380479862529118,1.126863838369861
4.365283282121017,0.9524422775251732,0.530503674766923,0.2905928902164542,4.335062057018107,0.6477363682630704,11.005802722705395,2.036089534224718,4.402566616134845,0.6928679645081235,3.4163444883183485,1.122401203772184
4.639538895448369,0.9747338516931332,0.5363735552042187,0.29284090142617586,4.6094671859369845,0.670764657580292,11.00596050967166,2.025706134841106,4.678974969317457,0.7166114454274266,3.452170140202344,1.1224961999789824
4.912608599298351,0.9983493853184019,0.5425826581622247,0.294196102311846,4.882737749399133,0.6903308672029228,11.006108490588616,2.0236226896443403,4.9527289060847135,0.7449519106564767,3.487866178260563,1.1272379081561987
5.182971870318628,1.022984890238555,0.5490791582844242,0.29559655652073763,5.153605807341237,0.7112485216196545,11.006244260919312,2.0182400335523196,5.223783505493154,0.7618166258287741,3.5234665491169883,1.1300581745841243
5.453130478066133,1.0493306588478628,0.5559301254604423,0.2970981767623029,5.423928010116915,0.7287731881959539,11.006360727744978,2.021564009056763,5.49383060637135,0.7844647394769351,3.5591651495970233,1.137698694715929
5.7229824220054955,1.0762820866102332,0.5630063544481166,0.297604067641173,5.693692948921671,0.7450227811882982,11.00649945719485,2.0176013708479115,5.763015907753819,0.8030128744765931,3.5945557725734685,1.1412707131802928
5.990378030111626,1.1015889433857622,0.5704713073137002,0.3016830071155952,5.961803656292877,0.7705595425606234,11.0066324049944,2.0188421871679645,6.030581835156919,0.8244561861156219,3.6299426522723444,1.1477132657027014
6.2575330593367005,1.1271211288265457,0.5781670806736479,0.303335063420368,6.228993494741477,0.7851567448918441,11.006772151497925,2.0212520066780306,6.297272389453656,0.8455692049576684,3.6652383761373653,1.1547966030168455
6.522738678374352,1.1523730697783194,0.5860337113320389,0.30624971692082253,6.494483662732404,0.8090835653257503,11.006920188418139,2.0219621114788215,6.5624624709099635,0.8628419017469907,3.700446189835888,1.1608617852176224
6.787093213018471,1.1761151084162633,0.5941400240555775,0.30752004865520904,6.758936465774317,0.8216086227589215,11.007082495421194,2.0217926098826617,6.8265500716474214,0.8805402292748368,3.735540572518265,1.1663911437148002
7.049228055226499,1.1989871233328748,0.6024070395892033,0.30833275068663246,7.021468519646165,0.8358652287439307,11.007255759045254,2.0161275584533915,7.088895981587081,0.8892183413196203,3.770578690325748,1.1686471317320717
7.311808454556297,1.2227120404904899,0.6111090836245415,0.3112245268277118,7.284370009542946,0.8507773068569775,11.007449095731845,2.0215536141983907,7.350829471857275,0.9189194209910969,3.8055214262586454,1.1773833586142304
7.57397297207212,1.2459902589886058,0.620023615280094,0.31529022875392615,7.546714297741627,0.8733066737327467,11.00766290484633,2.017202002730744,7.612149486208263,0.9280647359800753,3.8403128566590183,1.1803338203737894
7.833435599231437,1.2682119162729395,0.629088276935648,0.3178458747158079,7.806643776865655,0.8888520658959549,11.007887638363515,2.0223085596357406,7.871897066468034,0.9509505991669093,3.875151518051072,1.1887857439696818
8.090047087705214,1.2891075605802456,0.6383213714876222,0.31971024997758135,8.063929046732584,0.9023945025947556,11.008144152097397,2.021492159795151,8.129058013634761,0.9675338365891956,3.9097306961855285,1.1937641069492653
8.346079863831552,1.3101550883640556,0.6476228657095708,0.32081903602552586,8.319990985191632,0.9158536154583156,11.008423357989857,2.0196009251803293,8.384930923793549,0.9823258865817199,3.944204086923803,1.1980398784749973
8.599368043248644,1.3306418390204118,0.6572732440621522,0.3230851366581792,8.574103514170643,0.9270781996168653,11.008718168097522,2.0189144217143675,8.638743592600518,0.9944273249675145,3.978713239560546,1.202935018488733
8.854484495286785,1.3507534710977929,0.6670252472090069,0.3262429804114906,8.828867502112882,0.9467261463704569,11.009044104567495,2.0159963255460323,8.892725809773385,1.00702736557004,4.013101559497362,1.2064764884169725
9.107305314889054,1.3704966354974204,0.6769453204026006,0.3296705167011097,9.082009260480309,0.9641416554242066,11.009393545355353,2.017944395649493,9.14547491578276,1.0250960260339457,4.047489541680799,1.212894226018092
9.358443275790757,1.390145713225261,0.6869376122082071,0.32939753145488376,9.333394784523158,0.9664114876684067,11.009773310184285,2.0184548618091913,9.39664290544923,1.0397322141556773,4.081775824885137,1.2184266274002118
9.606907290670243,1.4089942986570945,0.6972330196807371,0.3317423752499864,9.582772943280686,0.9794685898506653,11.010180121574333,2.0204193640444483,9.645648573229575,1.0547706116808013,4.116035199232593,1.224799541184771
9.854020999037166,1.427616451033727,0.7076616238884633,0.3360971960203221,9.830315992098665,1.001873785217726,11.010625144698132,2.0229557598995624,9.892878872411714,1.075884514182937,4.1500891904178445,1.2315518917131603
10.100296743034171,1.4448638912822214,0.7181804103564804,0.33807262208083205,10.076664990731901,1.0108673048351442,11.011096456225106,2.021691881036327,10.138947494889592,1.082410622572719,4.184152095631343,1.2358826274941552
10.347034359572051,1.4632221419333682,0.7288851697266883,0.34024590470447896,10.323358995563424,1.0214531014593942,11.01160768579042,2.0210125544236828,10.384825789056661,1.098984467822468,4.2180537217526535,1.2405807072664339
10.590929345698028,1.480492355157621,0.7397009669867349,0.3424707494327001,10.567817425240346,1.0337946742868938,11.012139128117116,2.022506528260805,10.629071111777213,1.1040037504620386,4.2521842692871585,1.2464759156217267
10.83061264622556,1.4969971823741024,0.7505855214573864,0.3430888901284137,10.808434334360317,1.0393127443345964,11.012722790601346,2.0151013250294785,10.869954038416473,1.113778623726775,4.2859319241240135,1.2469526548543148
11.073417028429088,1.5143555051904416,0.7619115279063591,0.34844286497335125,11.05111166486332,1.0589444188366255,11.013343531228559,2.0123916516498426,11.111370445015831,1.131107522481813,4.319602042660676,1.250282896101431
11.311365407007502,1.5307647171670113,0.7730530199851278,0.35073991334987364,11.28967708707134,1.07328061636116,11.01399152655072,2.0202402825273116,11.350216788251599,1.1529715506698028,4.3534097475420825,1.260112311690049
11.551107817130568,1.5473372264681666,0.784216206607399,0.35424938640448467,11.528884888589028,1.0926791576294397,11.014684070358886,2.0160151908823627,11.58889616707001,1.1550508777618589,4.387012673116976,1.2623818135816631
11.790535429276032,1.5641119621692288,0.7955256319658808,0.3568821308131271,11.76815208530978,1.1023220637535665,11.015414086116028,2.0190527993912686,11.82754887648946,1.1719648783527798,4.420662200332429,1.2691677449226149
12.025394070161031,1.5789705056438754,0.8071146526482771,0.35966186326457,12.004225070256588,1.1098871876878142,11.016187068005237,2.017494412683002,12.063328259117922,1.180786947351156,4.454174666791544,1.273044169614562
12.261429209760461,1.5949588814138478,0.8187946719939669,0.36256441491551505,12.240244854538066,1.1225579877966931,11.01700277590792,2.019143418648251,12.298689293675485,1.1976552273626315,4.487613456653581,1.2789327757086943
12.493769282031291,1.6087669374816334,0.8305853850964893,0.3631216385444807,12.47336004534858,1.1231214042505067,11.017858729701418,2.0195823103100894,12.531684733841015,1.2066389316602384,4.521030634876799,1.2839983538542117
12.726567446764536,1.623928966097898,0.8424183670801864,0.3653230776164024,12.706146737590707,1.1371110850434374,11.018758418343955,2.0193437930254117,12.764019979160757,1.215272983727613,4.554415084948992,1.2885988282733989
12.956315575541433,1.6377608088713052,0.8544462132328211,0.36872086724987324,12.936570872092624,1.1498429908294774,11.019702519564945,2.0223053766330175,12.994287380916365,1.2305559263693109,4.58776738586276,1.2952354108507538
13.186734573900273,1.6514823100180422,0.8665747864716737,0.3709729504114901,13.166925098785098,1.1570973544136578,11.020696429534855,2.0175948836171185,13.223962333566325,1.2375258816124852,4.620873408102747,1.2969509305175966
13.413772989427345,1.6644913852131946,0.8788917920507705,0.37348341440097943,13.394797803495601,1.1648832176075963,11.02173400206425,2.017463518329185,13.451543636377938,1.251904420557324,4.65396095469897,1.3015559986804712
13.641254686240755,1.6785189780218248,0.8910867511820569,0.37866480728542745,13.622071708770262,1.1936082435149948,11.022815588569756,2.0164790435849294,13.67853015283287,1.2554918306863767,4.687114259280926,1.3055251406233122
13.866902371791465,1.6923585081517176,0.9033498028876663,0.3808434391866781,13.847836256927883,1.198226858816483,11.02394763784258,2.0216640773713532,13.904162402122775,1.2800378319410077,4.720131047249199,1.3135462731134944
14.090072372538062,1.7043102692613514,0.9157879505961009,0.3829685916011442,14.071699516564255,1.203991974801776,11.025127367824465,2.0145910242712786,14.127654348016033,1.2760360858044555,4.752981138870442,1.31352524390566
14.3172807657342,1.7176716911313485,0.9284308474887545,0.38485026356513014,14.29823200097514,1.2075899090910185,11.026356129349123,2.015094168064466,14.352886444125179,1.2897652865109308,4.7858902191326225,1.3183978785233221
14.53940927983187,1.7298230552792975,0.9409631490616203,0.38663360729438345,14.521137007517513,1.2200012912708154,11.027634878407524,2.016283641362399,14.575704193418725,1.3018649904084245,4.818740379006933,1.3237027774618986
14.758809664293981,1.7412058815665774,0.9537645716149228,0.3901256051187252,14.741406853235805,1.2302654252494718,11.028963816280797,2.0158795010995814,14.795936780945892,1.3092505322760093,4.851533325312609,1.3279284138008
14.979261268907923,1.7538151364245005,0.9666673347731901,0.3939190263439281,14.961789248519308,1.2431729686558508,11.030344686415564,2.0205176794328703,15.015735269778384,1.3298207602660015,4.8842446641511135,1.3354933563409563
15.198029367650703,1.7650141667314947,0.9794691698981554,0.39641616721766465,15.180658660988673,1.254921213575471,11.03177647457432,2.019137315963262,15.234251321813423,1.3380845236941754,4.916761102892596,1.3390590791622898
15.414034901650444,1.7768063193464536,0.9924411707529956,0.3977175751338226,15.397315358215836,1.255379941546574,11.033259211907808,2.0232088319371657,15.450822659714902,1.3481160436995676,4.949412472778209,1.3461636261452405
15.6254078397481,1.7876798658254696,1.0056434545106738,0.4003866420844344,15.610057595848488,1.262398921882142,11.034794740818844,2.0202301353659773,15.66373227210672,1.3506489379125883,4.981892153665993,1.3485711911048932
15.840984316161357,1.7999044615676107,1.0188264607332274,0.4022411816387368,15.824830431172149,1.269871104399244,11.036384814039897,2.0221192648994992,15.87771347780253,1.3634848180673633,5.0143916470113155,1.3542009445187622
16.050167271485204,1.8099503933908831,1.0320756461808236,0.4029657587558336,16.035209582374954,1.2709313030490044,11.038029395644438,2.0240814723777745,16.08834041541264,1.369021972330027,5.046933006021312,1.3598371334337802
16.261506378653568,1.8209376412104281,1.0456586342774663,0.41016846998527795,16.246531101373254,1.2978837129903111,11.0397291464947,2.028620747071292,16.29880184239332,1.3898387541982766,5.07930582703738,1.3672611293347714
16.470372184547863,1.8316023331807039,1.0589927644045614,0.4104803738713006,16.455518795423888,1.296062784839345,11.041483123759342,2.022562946564279,16.507733128182235,1.3782689573499862,5.111659688090605,1.3674383982401435
16.673780738761852,1.8401273910573175,1.0723185880551944,0.41085876935683135,16.660106933517074,1.2996696751616583,11.043294817181582,2.022844733023074,16.7129798064228,1.3891586209152311,5.144040296715862,1.3718883190921598
16.881873345949703,1.84974631322034,1.0859175098080902,0.413461891915647,16.867484538873228,1.3059942664318382,11.045161293863792,2.0300231186639826,16.91926789096343,1.4210566749081779,5.176216336025758,1.3810952831896905
17.0895751341079,1.8602791965171146,1.0996011342356344,0.4200258821425629,17.075074923664236,1.3330220051191584,11.047081049312428,2.0234713688320105,17.125714502672626,1.4096624409406504,5.208294444462188,1.3808515006936026
17.294903166625083,1.8705244211065026,1.1131535983630303,0.42225092225223465,17.280579970710125,1.3382164050893934,11.049058233150998,2.024519038438474,17.331031980734885,1.4277268928884672,5.240312804424691,1.3857910867338001
17.497149107106047,1.8790639788305281,1.1268555577452453,0.42247176168945566,17.483611348758522,1.3327788003550542,11.051091831400008,2.023400869685142,17.533946130315456,1.4325816609233093,5.272283347985571,1.3891939383456549
17.692605052218543,1.886679232613724,1.1408267503308238,0.42674638906232515,17.681003660139123,1.3469769774122515,11.053179631809027,2.022870294044729,17.731895917625916,1.4450975214839539,5.3041082098920525,1.392995501666531
17.890617973190615,1.8944660969433118,1.1547059592864541,0.43250085202784416,17.878642143631488,1.371453328272463,11.055323231664651,2.0222354862481726,17.92930678878835,1.4532825676308954,5.335872506785671,1.3966800913647939
18.08978662676416,1.9030592928752426,1.1685244607128324,0.4302695368738213,18.077188373400137,1.353604396842705,11.057526387993441,2.0248176679970222,18.12723118118487,1.464021288688851,5.3676534315601145,1.4025496849791943
18.29296006770329,1.913590678205438,1.1826120167092364,0.43328957530975837,18.279525558923098,1.3654657692974215,11.059788025379849,2.020394716639393,18.327677374003233,1.4599334457289521,5.399349149061004,1.4035224760457314
18.496446086145603,1.9241420335202388,1.1967557495594625,0.4357875468257102,18.482630971616935,1.372132895752274,11.062113285615816,2.0210766713420423,18.529438393176886,1.4712710945514997,5.4310515838052185,1.4080230931150577
18.691270318910842,1.9321719868292093,1.2110722589790344,0.4416427204812469,18.679399629170092,1.3926486750596305,11.064497466968575,2.0233311546834916,18.726534326161705,1.4858323166193532,5.462647810133341,1.413624461163646
18.88430035487212,1.939978399642743,1.2251034320195369,0.4398214847798981,18.8728833835902,1.3826614589078168,11.06694573951408,2.0269474313990843,18.92071285943264,1.4924748477989216,5.4942976834037065,1.420130565012624
19.07702691058761,1.948248309677345,1.239494539965258,0.4441616186981222,19.06601131423573,1.3974015650962879,11.069450783054137,2.030056257020434,19.11346306697575,1.5067326957254097,5.5257864092263596,1.4263115008567797
19.266112006356682,1.9555745986163582,1.2537753699824674,0.44678910695369417,19.25579048693361,1.4065135807852562,11.07201563864985,2.027186275703204,19.303492792706766,1.5027090692119032,5.55722251767391,1.4282305566396865
19.456600210170876,1.9642221221993197,1.2681420817679963,0.45006248315918373,19.44604408601594,1.4160338264248897,11.074639774376752,2.0239742971394734,19.4932757112642,1.5078152033036951,5.588560883658011,1.4298901017144021
19.64057934516116,1.9719067209058552,1.2826263256364117,0.45557565303811115,19.631449486827023,1.434303323487935,11.077328813439832,2.0225391978695892,19.679136009479276,1.5110521746099006,5.619930442085792,1.4327502542099673
19.825988903685502,1.9797664711780556,1.2969684293280497,0.4563755093563812,19.816597118173494,1.4330746366076972,11.080075870986011,2.0263525028485976,19.864175707753997,1.5324087221214122,5.65117993041046,1.4393591872010056
20.00977556681294,1.987754278530794,1.3115463637437796,0.45646669892442143,20.000800358617735,1.4254030485567213,11.082881478929307,2.0294575189306863,20.047877415342825,1.5433514087462674,5.682351912849288,1.445440862888175
20.19090526229294,1.994747674087507,1.3260754997931334,0.45848323039614264,20.182550328700373,1.4364567555342969,11.08573725202362,2.0236908017213633,20.229451879072844,1.5414625989542323,5.713299264933282,1.4451737975479721
20.375102623452104,2.0038070205511542,1.3409040928970009,0.46170006404139174,20.366240202774613,1.4401703603807168,11.088664259432067,2.020399273182671,20.41212798009134,1.5379208161300615,5.744373668223858,1.4465765771914607
20.55916433137654,2.011216096875217,1.3555655018880783,0.46301811350281064,20.55001363178319,1.4456996893737981,11.091651106229223,2.0231614035606142,20.59509464679604,1.558598640465594,5.775335668298613,1.4523470500361535
20.73830601938004,2.017526263951703,1.370557870206079,0.4699243075180149,20.730339720156692,1.4675156566899827,11.09470119085475,2.0240060487491673,20.77523360517336,1.5626611741398622,5.806266539162063,1.4566975259925954
20.91486738900906,2.024754262786431,1.3853654599508554,0.47228326239040386,20.907497062545055,1.4721359055225252,11.097807907071122,2.0220454713760248,20.95271467265927,1.5670461962613622,5.837060364962806,1.4590160712538685
21.09141919398047,2.0313445830466756,1.3999472789299536,0.4720195921142078,21.083910241214436,1.4732068472099709,11.100987833163177,2.026684005229765,21.129182794839235,1.577549414245277,5.867962174776757,1.4660531875459577
21.265106242617303,2.0381019822605793,1.4147280196225602,0.4726513895278453,21.25823920096408,1.4708306328537848,11.104227807431332,2.0343665852046393,21.303461555784324,1.597092979547396,5.898768355218908,1.4753272752340214
21.435115071906626,2.0448908165902835,1.4296365848789419,0.47591127414941864,21.429258925860573,1.4813356102221171,11.107516543178823,2.028675119959654,21.47460119590883,1.5877026276014252,5.929352383780335,1.4748700115377575
21.604701507897545,2.050083204796596,1.4445193021473168,0.47725622970664666,21.599027956181406,1.4825415764505565,11.110870732745605,2.026491816985902,21.644364353199514,1.5922958428441902,5.959935932219251,1.4769166311302362
21.772085749970024,2.055230177181925,1.4595864168355086,0.481316492807689,21.766999299451353,1.4938268299263928,11.1142849698492,2.0235539725496148,21.812191005788833,1.5953995539058807,5.990445554841646,1.4783827849877758
21.937103815421803,2.0608439468220516,1.4748436091724924,0.48865998397323873,21.93271923763445,1.5159304284738302,11.117765037121455,2.023408221647682,21.977859343216924,1.6018105030943082,6.0209546030875885,1.4818551454227284
22.10903824632468,2.066254001601183,1.489808147431709,0.48789519973854756,22.10288337476964,1.5074607579088772,11.121304910247286,2.0276472964656276,22.146676159300025,1.6200745487909418,6.05138453712355,1.4885517753251842
22.27526496858594,2.07046195650378,1.505024061954839,0.4895082981126383,22.27013256918256,1.508403518612347,11.12489585156285,2.0224506734443772,22.3133611672057,1.6145899147630909,6.0816357150784235,1.488283073341617
