coupler,coupler,$D^a [mM]$,$D^a [mM]$,$I_{islet}^a\ [pg/islet]$,$I_{islet}^a\ [pg/islet]$,$\gamma^b$,$\gamma^b$,$I_{cell}^b [pg/islet]$,$I_{cell}^b [pg/islet]$,$G^b [mM]$,$G^b [mM]$
2.697190237404975,1.069479034118772,0.5037728287817637,0.22362868564009275,2.6482277193530424,0.44714999554567786,11.000268475103713,3.4687692582015512,2.0043836557220565,1.4739830090933759,3.205904530763453,1.869375648027738
2.978122330568988,0.9641818369477972,0.5076701925353534,0.2730766160470429,2.9635270362757815,0.5116274721739617,11.002949771244346,2.6136479006892164,2.357550497207456,0.9463838604393812,3.2383953847624642,1.4098012227164762
3.2581651788234236,0.9249542834003429,0.5114795434198954,0.28590130365376365,3.2469387427703937,0.5515236028680591,11.005697841514406,2.3043068425395434,2.7948792243233465,0.7789820952234023,3.2778833447814124,1.2464069993030729
3.5376091670249186,0.9138620020257574,0.5156344490749171,0.2868736898967332,3.52666756614369,0.5708814911650267,11.00788418249792,2.157944870314652,3.219975989879686,0.7375049675994279,3.318334576212175,1.1721171354443558
3.8148712755458916,0.9186716412680782,0.5203289998525512,0.28880020702979836,3.804275496205968,0.5951398642239204,11.009545328749782,2.0936064471157847,3.6125216986123987,0.755873466001912,3.3584661665706115,1.142908528652636
4.090658007432255,0.932150465100505,0.5253823426898085,0.29050369297091855,4.080173486108106,0.6216968929078096,11.010856431588268,2.0587765172785835,3.9732199948991584,0.7896190143276824,3.39790484864676,1.1300573245752812
4.3652832821210295,0.9524422775251732,0.5307707087787675,0.28974744736119373,4.354834756952148,0.6381598802104854,11.011938865726272,2.0367705354539116,4.3087213076352455,0.825634341744918,3.436669136166898,1.1243092689188463
4.639538895448377,0.9747338516931332,0.5366768886629577,0.2928907781992098,4.629220988389998,0.6631819302366595,11.012820269392012,2.029914392546003,4.626316819779693,0.8620735595921984,3.4750860350985238,1.1268362537339047
4.9126085992983555,0.9983493853184019,0.542870836442278,0.29354478343134366,4.902360519372513,0.6801921221797587,11.013616469011023,2.024981842730746,4.9296291920400845,0.8983651317344251,3.5129385526628507,1.1304605094389326
5.182971870318638,1.022984890238555,0.549377132322723,0.2934886461754563,5.172996958814549,0.6953535410556917,11.014300161756186,2.0221316785833325,5.222741761383967,0.926731573183589,3.550582627714798,1.1350542597742208
5.45313047806614,1.0493306588478628,0.5563278055470241,0.2971938922531805,5.4432651342663885,0.720148073570448,11.014937181864013,2.0201830844817907,5.508175938971178,0.9554884704864186,3.5879054104034154,1.140115746528888
5.722982422005503,1.0762820866102332,0.5634802739716209,0.2998990209185487,5.71307300707979,0.7422069839511607,11.015546002622795,2.0156555423237474,5.787795021393247,0.9815762875888794,3.624898423927988,1.1436490703403916
5.990378030111625,1.1015889433857622,0.5708422921845688,0.3009632320794867,5.98065592131051,0.7578608680547838,11.016099229624269,2.0147946201333373,6.063300744621804,1.0047073130527275,3.6618507109544653,1.1490973404883529
6.25753305933671,1.1271211288265457,0.578586610039429,0.3049480585910112,6.247898269348456,0.7813231999283167,11.016658642699625,2.0146298080290364,6.334947206361594,1.0334474083202276,3.6984440634967415,1.1549882999473842
6.522738678374353,1.1523730697783194,0.5865011767286776,0.3058449029094343,6.513250227618777,0.7932025902258193,11.017186333959792,2.017923721647459,6.603788549496852,1.0599047567110138,3.73495735755809,1.1627465080279884
6.78709321301847,1.1761151084162633,0.5946366550556825,0.30727835827450223,6.777691995911775,0.8095384725485386,11.017710618278869,2.0178420657252563,6.870105481316329,1.0826675583019787,3.7712634790693302,1.1685073652912517
7.0492280552264885,1.1989871233328748,0.6030236439854187,0.30948894630637663,7.040053579897943,0.8265608617236097,11.018222022257488,2.01964858339603,7.134383372804803,1.1048679651027842,3.8075004811424535,1.1752832392479955
7.311808454556305,1.2227120404904899,0.6117603536154146,0.3134005977309947,7.302641391885691,0.8459040439826376,11.0187499688283,2.0204339757592362,7.39680023631846,1.1296003921196633,3.843474902723255,1.1814809098528423
7.573972972072124,1.2459902589886058,0.6205421644818583,0.31499758079888257,7.564753544689747,0.8608302495641876,11.019259901383684,2.027000265101789,7.658482968178642,1.153665979542903,3.879512650838187,1.190956767668484
7.833435599231453,1.2682119162729395,0.6295614004967016,0.31748155975483694,7.8244871545390415,0.8771715290823302,11.01979213582309,2.025166103529445,7.918149058384343,1.1718125087390379,3.9152899685591613,1.195489858909607
8.09004708770522,1.2891075605802456,0.63870268969927,0.3190254720154205,8.081375521525404,0.8905074952508213,11.020339256582151,2.0215121412750943,8.175826029611322,1.1896869440680364,3.9508931235145073,1.198894593585788
8.346079863831557,1.3101550883640556,0.6480368180494613,0.32081373769465077,8.337473920574126,0.9036835881858042,11.020894678579355,2.0172347996387345,8.432097332855585,1.205280772158029,3.9864173939207137,1.2018325968037693
8.599368043248644,1.3306418390204118,0.6576369665957741,0.32329342624427654,8.591075991350838,0.9168743191393309,11.021454060575953,2.019467183948551,8.686863537187808,1.2257760110565323,4.021953902813845,1.2085941028541154
8.854484495286775,1.3507534710977929,0.6673815456286925,0.3247546166858372,8.845994322424572,0.9270961478911977,11.022045841148476,2.0188015733104008,8.940272747368555,1.2471869528522708,4.057224662108077,1.2136468251034636
9.107305314889047,1.3704966354974204,0.6772749234243118,0.3279808840016748,9.099012456876931,0.9467053333300388,11.022641581788031,2.0199665650142253,9.192763877369647,1.2643021757850916,4.092538030335616,1.2196857149094043
9.358443275790759,1.390145713225261,0.6872773951354,0.33246774455205325,9.35028604513297,0.9697631437403712,11.023261942575317,2.019770063874354,9.443849783409737,1.281324110331322,4.127727881126324,1.2248861351450386
9.606907290670245,1.4089942986570945,0.6974721945161,0.33263614514721235,9.599023090302909,0.9677676807875418,11.023903325219552,2.0197557195795914,9.69327321884886,1.298054064085284,4.162842853007366,1.23015543179124
9.854020999037168,1.427616451033727,0.70788609463882,0.33718079708054044,9.846352221602718,0.9923332268349622,11.024568957828368,2.019590612350656,9.941084938020172,1.3145682314912506,4.197870329455528,1.2352983218480909
10.10029674303416,1.4448638912822214,0.7184886685169052,0.33861752819628665,10.092700343995102,0.9950929211960012,11.025265597716853,2.0166810360876384,10.187318801002334,1.3295037237085212,4.232740582064255,1.238731737694658
10.347034359572055,1.4632221419333682,0.7291152860667524,0.33846828346846897,10.339354033844014,1.0001044321733539,11.025985960752797,2.017192013869344,10.432836017121897,1.3468867953971693,4.267584737354203,1.2442125715677428
10.59092934569803,1.480492355157621,0.7399589065275413,0.3425445202978346,10.583544689205528,1.0222730408050658,11.026741912509275,2.0161706137660826,10.676628488600306,1.36513052390567,4.302231558992597,1.2487442772619695
10.830612646225552,1.4969971823741024,0.7509013118735007,0.34334236945475316,10.823649738111431,1.0241584248316178,11.02752030017307,2.0154487642915666,10.918393030210131,1.3795393244950964,4.33685788538722,1.253373595791245
11.073417028429082,1.5143555051904416,0.7620812412075132,0.3472939066332564,11.06618838242677,1.0425408091833448,11.028326330299658,2.015956125723366,11.159699153023762,1.3930012135310477,4.3714970873646095,1.2587102462151118
11.311365407007502,1.5307647171670113,0.7733951472469943,0.34972818839477054,11.304594803644783,1.0507361280066962,11.029168497746605,2.016150836659062,11.399080318045238,1.4083425473891076,4.406021835703942,1.2638504009948988
11.551107817130573,1.5473372264681666,0.7849027889698317,0.3542842738740656,11.54419534874319,1.0697502571479724,11.030050200076845,2.0155580045887467,11.63738611043048,1.4251767090881553,4.440386643069284,1.2684909186514652
11.790535429276025,1.5641119621692288,0.796383202761855,0.35461510706132227,11.78355329011128,1.0705389337181164,11.030966222463123,2.0192546704314784,11.874983072975924,1.4465723402731705,4.474681224458127,1.2758090566766953
12.025394070161028,1.5789705056438754,0.8078837566836665,0.35809522207479466,12.018852983174433,1.092867468749532,11.031911765928434,2.0224172185406837,12.110966104124513,1.4615084262491922,4.5089870728873755,1.2827196357229962
12.261429209760458,1.5949588814138478,0.8195603283028643,0.36014180107203725,12.254759256956236,1.0976957300217538,11.032907679659232,2.0179884458544115,12.345465134406384,1.4746521762494624,4.542973384950867,1.2848398212735825
12.493769282031304,1.6087669374816334,0.831397532327499,0.36435831310569455,12.487488775353263,1.1158814250945255,11.033934195149413,2.023726216205861,12.578661933047592,1.4971410047832296,4.577010632350873,1.2933784197086904
12.726567446764543,1.623928966097898,0.8431898103629034,0.36323319330112447,12.7201876569188,1.1094777793489419,11.034998290414457,2.021921644934457,12.810721389546591,1.5049829696864778,4.610990332117234,1.2970179363529837
12.956315575541424,1.6377608088713052,0.8552450237405878,0.36813534911495555,12.950295339373335,1.133515160087681,11.036106318430585,2.019129177926937,13.04121555985964,1.5152117166021517,4.644860869532442,1.3000054874538833
13.18673457390027,1.6514823100180422,0.8674401701276373,0.3764104231511068,13.180631135133103,1.1661621000054285,11.037253786507682,2.0214829472347806,13.270987994639178,1.5305082028466468,4.678759176274431,1.3062697586851015
13.413772989427356,1.6644913852131946,0.8794105949012962,0.3747127330733417,13.407876415933595,1.154021751611572,11.03844483559533,2.016995860765027,13.49901988880266,1.5352792759936382,4.7125730741526395,1.3080579621614699
13.641254686240746,1.6785189780218248,0.8916117946945777,0.3763657635299104,13.635375611135387,1.163294139704701,11.039681048245688,2.017557703698673,13.726157738512487,1.5492370669034565,4.746362002869468,1.3131121582330005
13.866902371791452,1.6923585081517176,0.9039547793477739,0.3799504038054663,13.8611959610418,1.1783939700564965,11.04096785999661,2.0128623494385485,13.951459228802548,1.5619685699714496,4.779873820789265,1.3147549345343954
14.090072372538055,1.7043102692613514,0.9163872062040804,0.38203153672648343,14.08461068174714,1.1837433373156636,11.042294897048267,2.0109924276267512,14.175377262425002,1.5730217327539,4.813414186896017,1.318147132540863
14.317280765734209,1.7176716911313485,0.9288824912449142,0.38438114767009307,14.311373053353753,1.1936930817067635,11.043666733225445,2.0199101612288612,14.399538916353755,1.596730305965682,4.847017685286381,1.3286099603467894
14.53940927983187,1.7298230552792975,0.9416113932310529,0.3869419091720394,14.5340081754821,1.1993422798853866,11.045086596868243,2.0219280385282152,14.621927360403014,1.6095478110186838,4.880474429625431,1.3345241790854114
14.75880966429398,1.7412058815665774,0.9543563696646606,0.38940967407537863,14.753718371468448,1.2099589034732414,11.046555242847342,2.0190592877827283,14.842456738595295,1.6168490265998627,4.913808473470827,1.3371759688889502
14.979261268907937,1.7538151364245005,0.9672498622995249,0.3943242525064103,14.974064405705656,1.2289084269490635,11.048074899162797,2.013297022943808,15.06184059196174,1.6248859557551525,4.946966226347528,1.337884630440024
15.19802936765071,1.7650141667314947,0.9801060487285131,0.3945980711324855,15.192926169262435,1.2254813494198633,11.049640717071417,2.0208347862921094,15.280585580014765,1.6459440105373713,4.9802760998310305,1.3473827536339267
15.414034901650448,1.7768063193464536,0.9930954024292178,0.3967464633398377,15.409239285468637,1.2349601979387146,11.051257397168609,2.0239481903305228,15.497333742316531,1.6618816919426738,5.013408866040813,1.353948051194998
15.625407839748087,1.7876798658254696,1.006396875782642,0.4001319356600799,15.621166067533135,1.2416973541077307,11.052923498708687,2.0188007895574027,15.7114726046394,1.6655394794592406,5.04639585569641,1.3549289525604125
15.840984316161363,1.7999044615676107,1.0196221519957234,0.40270904547611375,15.83628387546786,1.2528347958000603,11.054641764450711,2.0241894078888754,15.92528483419291,1.686591797331806,5.079382184767799,1.3629820849919925
16.050167271485215,1.8099503933908831,1.0328565394516869,0.40682683548870113,16.046049930227753,1.2709156516457178,11.056409815486171,2.0230510207055588,16.136655448565747,1.695646179198129,5.112236545745915,1.3665984474851145
16.26150637865358,1.8209376412104281,1.0461263747453018,0.4072802176303546,16.257154950249294,1.2668146722966738,11.058230285126303,2.0254678114880145,16.347049813348168,1.7125863829659385,5.144995704135551,1.3726132487454117
16.470372184547855,1.8316023331807039,1.059583265867741,0.4124461179287512,16.46627534163787,1.28858596939171,11.0601026304854,2.026953886455162,16.55621608624779,1.7217799277815244,5.177779385481518,1.3779291271568306
16.673780738761867,1.8401273910573175,1.0730495641233506,0.4140042963440505,16.670235684500305,1.2885286531706857,11.062028206195441,2.0225044041399824,16.762809195955814,1.7244901001278112,5.210436869997503,1.3791797493847178
16.881873345949725,1.84974631322034,1.086678952536773,0.41576083121983953,16.877879145177456,1.2913979041422685,11.064010646233374,2.0244053568819975,16.969236178785142,1.735438051052254,5.243160290879727,1.3847267754382386
17.089575134107907,1.8602791965171146,1.1002355475272623,0.4188385576896168,17.085510558231594,1.3074720643609157,11.066047472409817,2.0249312808709514,17.174777232584464,1.7513564926724454,5.275659231546172,1.3893721706838926
17.29490316662509,1.8705244211065026,1.1139472252433769,0.41999896510529244,17.291052498521523,1.3049082483633132,11.068135639158015,2.01953437512231,17.37896997827735,1.7592221504110774,5.307957180474141,1.3899078791748098
17.49714910710603,1.8790639788305281,1.1277294902494641,0.42355116330490716,17.493638687422393,1.3200464985859846,11.070279250245829,2.026189127399512,17.581903767640057,1.7824700417199881,5.340296240638516,1.3987074473874124
17.692605052218546,1.886679232613724,1.1413776113430973,0.42703877765986314,17.689773970082918,1.3361965052384095,11.07247705646315,2.023069716342111,17.78187236945645,1.7808925199825638,5.372630310304693,1.4006607708341992
17.890617973190633,1.8944660969433118,1.1554498406281632,0.43018726885641656,17.887610274807148,1.3342290447472935,11.074733384128487,2.025166288799761,17.980562635326134,1.7935158487644105,5.404908451649739,1.4062443593338232
18.08978662676416,1.9030592928752426,1.1694462038003035,0.4328166294572244,18.08659682757264,1.3446523451580448,11.077046139934996,2.0273372170768904,18.178402213007164,1.8067858091748028,5.437097583876331,1.4118745530443755
18.292960067703277,1.913590678205438,1.1834708532155376,0.4332361509417324,18.289260328715482,1.342191151027379,11.079413109579818,2.0206645076742675,18.376508299120104,1.8085181217059962,5.469097926078226,1.4113076725205187
18.496446086145603,1.9241420335202388,1.1974880396077863,0.4349370980408524,18.49261213633243,1.3514371357025095,11.08184525034736,2.026569838360955,18.575639206409907,1.8256321908201887,5.501242310176005,1.419484611260715
18.691270318910842,1.9321719868292093,1.2116425011285668,0.43954585858177736,18.688330557648786,1.3685085710870328,11.084332595250983,2.0273513054869565,18.77242896934457,1.8364234893489142,5.533215502634237,1.4240783762577116
18.88430035487214,1.939978399642743,1.2257568181279141,0.44242227032171577,18.881583217991043,1.3763104699466684,11.086880501158895,2.0310547583940957,18.967395297178182,1.849424514265213,5.565183485094717,1.4306973857134293
19.0770269105876,1.948248309677345,1.240081265523196,0.4461429530276595,19.074362722955303,1.3840346401863632,11.089484153829483,2.0268378041281543,19.160657952503836,1.8513581344726375,5.596996061580278,1.4317070462098487
19.266112006356675,1.9555745986163582,1.2544326704025297,0.4496593631897609,19.263812602914715,1.394383874894328,11.092150152405738,2.0261782827988206,19.352072719976473,1.8585691619202194,5.628813361809894,1.4351892465505374
19.45660021017088,1.9642221221993197,1.2685613438078958,0.4496955855082098,19.45408787795726,1.39520177223379,11.094873052012248,2.0229077814795304,19.542208830736207,1.8647873711080492,5.6604920108415815,1.4368068699204823
19.640579345161164,1.9719067209058552,1.2829605552111263,0.4536895822413108,19.638756357639316,1.4075501751823478,11.097651730043104,2.0192564064200336,19.729637827174983,1.8725286230616869,5.692040863010949,1.4381245665461864
19.825988903685502,1.9797664711780556,1.297358546806134,0.45614791150168404,19.824031938278864,1.4126328895283342,11.100492599242452,2.021437830254538,19.915723444722463,1.8864518405091784,5.723596633443936,1.4435583402730743
20.009775566812944,1.987754278530794,1.3117650389825382,0.4575361553344146,20.00793643631099,1.4150049615881033,11.103399149244606,2.0269445812103157,20.100462107714648,1.8991852225725634,5.755208614819884,1.4513326496679677
20.19090526229292,1.994747674087507,1.3262709771693733,0.4595390890924632,20.189341120497623,1.419628588310065,11.106352261736175,2.0162003850451344,20.282851565616106,1.8926506315719807,5.786503165685704,1.4474547839634349
20.375102623452133,2.0038070205511542,1.3408151308893044,0.4615016815073693,20.373192957775522,1.4245934786353796,11.109379801905833,2.0213428695089144,20.465380062833933,1.9084227127800941,5.817975028001509,1.454937060778366
20.559164331376536,2.011216096875217,1.3555166824560725,0.4657001878974062,20.557213506049745,1.4371910948627766,11.112469862501369,2.023965242637542,20.647421997614845,1.9171262447869466,5.849398750560044,1.4605929578754229
20.738306019380023,2.017526263951703,1.370293970276947,0.466882077988993,20.736849432403538,1.4330892580370775,11.115618173083986,2.024019832788703,20.82769491357647,1.9246494058465737,5.8806983271982185,1.4643954338419753
20.914867389009054,2.024754262786431,1.3852432307752658,0.46694905082741833,20.913743844570767,1.4259214302689898,11.118831329217377,2.0311138482147966,21.006168900726006,1.9436119103709635,5.911986425425585,1.473293713663597
21.091419193980485,2.0313445830466756,1.4001510247542808,0.47297371694952073,21.09028965046199,1.4564437725346113,11.122092388963543,2.0328407102415316,21.182821648486385,1.958321594064584,5.94302207316487,1.4783176824833866
21.265106242617307,2.0381019822605793,1.4150866821263146,0.4735624369926311,21.26421156949115,1.4471753778674628,11.125415650731735,2.0286684222601723,21.357782859582056,1.956207866601298,5.974032846577312,1.4789618509690705
21.435115071906633,2.0448908165902835,1.4299231084292017,0.4785986787012136,21.434601676475758,1.4733201214921785,11.128803632961032,2.029714192442491,21.530671403710848,1.9654898767007283,6.005022079820286,1.4833942164117526
21.604701507897545,2.050083204796596,1.4448516579675974,0.4787904923305102,21.60421564032146,1.4619065205164474,11.132241424467024,2.0243087901305263,21.701513081714417,1.9681851382956854,6.035803772678339,1.4830943693028635
21.772085749970028,2.055230177181925,1.4597443602061815,0.47913581269308325,21.77181183193174,1.4637563638836304,11.13575802808507,2.032440944891363,21.870943486380163,1.986037097144178,6.066754935518499,1.4926704071492978
21.93710381542181,2.0608439468220516,1.4749875502412078,0.4846751738825881,21.93711828208987,1.4792162723792208,11.139315162217533,2.0283180141237382,22.03781585214779,1.9896677496308106,6.097393856460355,1.493259321652894
22.109038246324676,2.066254001601183,1.4900385410161319,0.48892298424488845,22.10824812295475,1.494671773918789,11.142944168870041,2.0295160504010954,22.20544138371251,1.9971686622298417,6.128106730797544,1.4977064131754618
22.275264968585933,2.07046195650378,1.5052547364997675,0.4944227763898887,22.274980833186792,1.5082779482412272,11.146615160397838,2.0294100615372614,22.371440154707642,2.0131838607292076,6.158534921135868,1.5012282510707078
