coupler,coupler,$D^a [mM]$,$D^a [mM]$,$I_{islet}^a\ [pg/islet]$,$I_{islet}^a\ [pg/islet]$,$\gamma^b$,$\gamma^b$,$I_{cell}^b [pg/islet]$,$I_{cell}^b [pg/islet]$,$G^b [mM]$,$G^b [mM]$
2.6971902374049352,1.069479034118772,0.5037712438581791,0.22307620231222125,2.5012295611237216,0.4461119971709312,11.00034083560161,3.4840477127834633,2.0151642810288424,1.468928423779535,3.2061647433584555,1.8775949866550614
2.9781223305689775,0.9641818369477972,0.5072845243654509,0.27501186023476665,2.8288289067036905,0.5284767414211344,11.003022151160494,2.6175586302229332,2.629487587115726,0.7055912067536965,3.2385027695334654,1.4121134291311102
3.258165178823426,0.9249542834003429,0.5108823251420233,0.28413858073336007,3.1230738343158064,0.5650519309028676,11.00436659952105,2.3131569646509362,3.1338995089375827,0.5831153070930447,3.273723544044149,1.2515279731938442
3.537609167024899,0.9138620020257574,0.5149450626318182,0.2877007646973473,3.408395145768657,0.5983027359949299,11.005011836892592,2.171831491724813,3.511220403464981,0.6072009373695899,3.3091555264007617,1.1798030891288063
3.814871275545871,0.9186716412680782,0.519464083855508,0.2887726761903324,3.6885186938791805,0.6244515663692332,11.005392155503808,2.096151869548773,3.82898142608194,0.6400488484608784,3.34468613994849,1.1439990652512504
4.09065800743222,0.932150465100505,0.5244359847443877,0.28839197489025253,3.9661379490899695,0.6446330087689448,11.005641216071306,2.055209322853473,4.121280157973688,0.6660051262226827,3.380428905388826,1.127201593174892
4.365283282120991,0.9524422775251732,0.5298158786750392,0.29169995764283857,4.241974621244287,0.676760737321786,11.005831112060429,2.0312978334638614,4.402496765333973,0.6888258528585036,3.4162377263991326,1.119777017318578
4.639538895448353,0.9747338516931332,0.5355594782427026,0.29252846334675664,4.516089914465278,0.6969744621530747,11.005990718235896,2.022906835459204,4.678971822870958,0.717262562395125,3.452044887441776,1.1209637262222145
4.912608599298342,0.9983493853184019,0.5416445339296745,0.2928066226668899,4.789398612732009,0.715910969372753,11.006125695902396,2.018861404073146,4.952774212419507,0.7385095981252703,3.4878590683370123,1.12452503852888
5.18297187031861,1.022984890238555,0.5481216987864369,0.2963224491729156,5.061579554944117,0.7436565554058732,11.006245468547526,2.0236283855109027,5.223973367879623,0.7655985157480196,3.523663517159271,1.1330250664977217
5.453130478066118,1.0493306588478628,0.5548425954707804,0.29621296194130897,5.331621133465926,0.7582879097111079,11.006376575033862,2.014223504800886,5.493806765671661,0.7753642838771808,3.5592228625895217,1.1335349290931387
5.722982422005481,1.0762820866102332,0.5619452547639691,0.2990267006610939,5.602310554154307,0.7815612454924503,11.006507422228228,2.0188133716565075,5.763148034240323,0.8061651173554436,3.594737461800265,1.1419476958967052
5.990378030111628,1.1015889433857622,0.5693076046792049,0.30153214026337327,5.870849577146004,0.803250662668547,11.0066509696845,2.0195851857863643,6.030537503309289,0.8283342505013436,3.6300065147566483,1.148187459742978
6.257533059336683,1.1271211288265457,0.5769222862283366,0.30360058460257855,6.138312811837298,0.822654057230481,11.006781396423387,2.0195262735797868,6.297261340672973,0.8403351060176484,3.665391824178251,1.1537925228321546
6.522738678374351,1.1523730697783194,0.58471393329292,0.30326294727012065,6.4037907575974895,0.8342348651431307,11.006930470012001,2.019689768962105,6.56251152574093,0.8603401151019613,3.7006119076199058,1.1595522051067475
6.7870932130184745,1.1761151084162633,0.5928634872786328,0.3051346738626149,6.669525010205916,0.8510224278359539,11.007098656193898,2.013916123703339,6.826552201993108,0.8735795074980998,3.7356462852826016,1.1618467547467013
7.049228055226518,1.1989871233328748,0.6012916217131602,0.3108305623218993,6.9336634342816,0.8818275556021973,11.007274136400628,2.010556407918686,7.088926383357578,0.8888149252161044,3.7706704711708077,1.1654432958260508
7.311808454556281,1.2227120404904899,0.6098103865669907,0.3107571726907692,7.195562352300839,0.8897902880675126,11.007469608280447,2.0110798690960174,7.350799979182743,0.910956318147025,3.805573762257764,1.1712880923909306
7.573972972072114,1.2459902589886058,0.6185634445506693,0.3111174478083218,7.457858512575377,0.9008420730682088,11.00767674870039,2.013665534148474,7.612225784206352,0.9291872732062942,3.840467317099718,1.1782718853464966
7.833435599231409,1.2682119162729395,0.6277013942302369,0.3159647413962388,7.719879450917554,0.9255012217311335,11.007901276765653,2.015558746473268,7.871900130689272,0.9448695434635775,3.8753070351882046,1.1848135599405247
8.090047087705205,1.2891075605802456,0.6368281521722238,0.31831719624018706,7.977465773573389,0.9442577330239766,11.008150366164825,2.0138873390803917,8.129154395113092,0.957916770688529,3.91001661411963,1.1892302932426382
8.346079863831541,1.3101550883640556,0.6461714174034303,0.32046718446215083,8.23411692750495,0.9587288210222172,11.008424170034575,2.0160230537939867,8.385096349904682,0.9788526084069508,3.9446292291562983,1.195889958350446
8.599368043248644,1.3306418390204118,0.6557563246557436,0.32313766731467075,8.48938182896626,0.9740548042808687,11.00871845792591,2.0235763501081196,8.638850707563387,1.0030117135586605,3.9791966333851123,1.20575555880615
8.854484495286803,1.3507534710977929,0.6655034372157476,0.3262006979293719,8.744419211702267,0.9918552201727548,11.009047873726175,2.0180400023248675,8.892672172527954,1.008399229806871,4.0135270556967395,1.2077632379983934
9.10730531488907,1.3704966354974204,0.6753315060482021,0.32768087204280044,8.997572105951477,1.0042165082481294,11.009401629331867,2.0190751505189315,9.145400894916406,1.0277314631169148,4.047835386184104,1.2136606164897386
9.358443275790757,1.390145713225261,0.6853838901022368,0.3298475600769703,9.249929735966298,1.0172544221897524,11.009784589642976,2.017524709947124,9.396544960721236,1.04046246362216,4.082037880389231,1.217952196953987
9.60690729067024,1.4089942986570945,0.6955833482697396,0.33258466204616594,9.500155299605048,1.0332848318854109,11.010193828803676,2.017571820115691,9.64555377878145,1.0542961680181548,4.11621867406005,1.2231528605347164
9.854020999037163,1.427616451033727,0.7058667672672642,0.33561438148268274,9.74818393029249,1.0511573807761159,11.010631314327876,2.012551708486708,9.892888095249857,1.0573863467798166,4.150388969740516,1.2251917417742044
10.100296743034193,1.4448638912822214,0.7164961373727191,0.3387635161623225,9.996216207464915,1.062259147374123,11.011112281565962,2.011857419801751,10.138988284674348,1.0810931808582174,4.184316373084126,1.2299273152586228
10.347034359572044,1.4632221419333682,0.7270855644552093,0.34332701037264574,10.242707146973876,1.08806157648177,11.011611530660154,2.0181931544796683,10.38492949553169,1.0965030675287473,4.218455061020605,1.238846958793507
10.590929345698022,1.480492355157621,0.7377565690090949,0.3417312933072268,10.487023417381891,1.0826063440718192,11.012154273976096,2.0186596316384877,10.629003839254986,1.1095020857079472,4.2523642742901195,1.244200028364737
10.830612646225577,1.4969971823741024,0.7487426785189119,0.34745920008600206,10.730269198995408,1.1099042774800725,11.01273252238475,2.021801368846284,10.869895747512768,1.1283584551622077,4.286175374742771,1.251191969782254
11.073417028429095,1.5143555051904416,0.7597084807504935,0.35001535794527516,10.972041150452776,1.122859664972444,11.01334229373811,2.0236983535688764,11.111356840018313,1.1362651789013996,4.320047501999893,1.2573294797168102
11.311365407007502,1.5307647171670113,0.7707816871826542,0.349806454647242,11.21164095197957,1.1235345007436175,11.013996533302198,2.023928117970723,11.350138760994383,1.15197017714276,4.353710546486602,1.262465145303732
11.551107817130559,1.5473372264681666,0.7821229166331088,0.35398115003692054,11.452161090839668,1.1426948948154891,11.014684444636565,2.0304940394765896,11.588946697762077,1.170572523877112,4.387444681614138,1.2715092759824933
11.79053542927605,1.5641119621692288,0.7934882397007725,0.35535873846740895,11.691378159150275,1.1499773030183866,11.015420058035446,2.0206473143588024,11.82741437580377,1.1661660866189367,4.420911314482695,1.270227305890101
12.025394070161036,1.5789705056438754,0.8052164035972913,0.36031243465862883,11.929585410251798,1.1680060722941992,11.016190267685463,2.0209107429731175,12.063359869248355,1.1802888529356848,4.454511493953796,1.275228440551978
12.261429209760468,1.5949588814138478,0.8168022015009891,0.35904085534171304,12.165339599673839,1.1653309560722873,11.017006428450417,2.018760738006662,12.298721977603234,1.1916224285418626,4.487967221670861,1.2787051944113408
12.49376928203127,1.6087669374816334,0.8287701289628546,0.3638688307100345,12.40069261700188,1.1851502834037415,11.017860926035256,2.0139385217630155,12.531787646903197,1.190619321262077,4.521498366277292,1.2803808210430818
12.726567446764525,1.623928966097898,0.840636948198247,0.36545437333226577,12.633515368138966,1.1942456944657713,11.018765094161783,2.0162931220232934,12.764130908489198,1.2160171565263567,4.554857231969065,1.2866911979097448
12.956315575541447,1.6377608088713052,0.8526462997805713,0.3657749431993313,12.864764141967672,1.1954614358834539,11.019710410547905,2.016621837658639,12.99430195997182,1.2246316937391346,4.588196152429488,1.2916369554944436
13.186734573900276,1.6514823100180422,0.8648984710441654,0.37190528756077296,13.0962617275794,1.2218817641494097,11.020704778965559,2.0203300073995667,13.223987465588253,1.2488846304350616,4.621319724931801,1.2987949097843385
13.413772989427331,1.6644913852131946,0.8769127344941371,0.3736685865873508,13.323528732856497,1.2330926568013063,11.02173970231185,2.018250580037692,13.451518082944952,1.2476931814474963,4.654485502909098,1.3021043777251835
13.641254686240769,1.6785189780218248,0.8892364380753719,0.37712434626058194,13.551606694544768,1.2438084608316884,11.022822994080995,2.022754729797971,13.67852020936766,1.2681081557188754,4.687594260318703,1.3096852311086165
13.866902371791488,1.6923585081517176,0.9016162405990664,0.37669416767483627,13.778290045395767,1.2398630963991308,11.0239543074738,2.016950683212692,13.904071505576674,1.26578121128711,4.720567740691481,1.3105273415312626
14.090072372538076,1.7043102692613514,0.9142555861371602,0.3815695576826974,14.004046909362753,1.260102837753647,11.02513218913792,2.0217284584905366,14.12779386084014,1.283591854689088,4.753655463804317,1.3182146717968335
14.317280765734187,1.7176716911313485,0.9267958362592924,0.38566255535662364,14.229412246428241,1.2791754643630833,11.026361692492094,2.016687620440883,14.352946413967702,1.2802122330865273,4.786639717640251,1.319456316582562
14.53940927983187,1.7298230552792975,0.9394915834479922,0.3868282138006792,14.45309097197606,1.2794400116896811,11.02764380273155,2.0135972643684057,14.575761563080933,1.2948794548735367,4.819446305572363,1.3219922451709143
14.758809664293986,1.7412058815665774,0.9522880160903491,0.3887392097546512,14.674787227129187,1.2871993838833007,11.028974530162449,2.016009141277529,14.79598295401015,1.312230141628673,4.852243418669286,1.3281006387490042
14.979261268907894,1.7538151364245005,0.9650901032326883,0.3893477743925263,14.895359784861913,1.290684196959122,11.030355459763262,2.021125074128835,15.0157712667662,1.3263561295506887,4.8850567433870635,1.335958957397268
15.198029367650692,1.7650141667314947,0.9781928412323486,0.39524026499921383,15.115787872698895,1.3128859066668106,11.031788710011579,2.020119447031262,15.234310295261109,1.335045073360319,4.917647816765712,1.3397777756351512
15.414034901650439,1.7768063193464536,0.991158453299765,0.39915191952711704,15.332822330681587,1.3297667422171173,11.033272956415482,2.0194576997887594,15.450786795106719,1.345663770509828,4.950154300309705,1.3437830009619287
15.625407839748123,1.7876798658254696,1.0040634282590433,0.39854621937921597,15.546117253122024,1.3264584420999217,11.034808595239706,2.01835944016548,15.663742461668232,1.3478410760982726,4.9827163773044365,1.3474145343601323
15.84098431616135,1.7999044615676107,1.0172200305144572,0.4021184980430536,15.76126175781748,1.339841096342541,11.036399030618382,2.0188962399593264,15.877693745045837,1.3612579524746138,5.015173517729244,1.352150291916145
16.050167271485186,1.8099503933908831,1.0304631138357097,0.4032253817071234,15.973247661639688,1.340605132189381,11.038043110287838,2.02171603727624,16.088293629674403,1.3716035619066504,5.047655690155295,1.358375311988376
16.261506378653547,1.8209376412104281,1.0438384205636428,0.4077056083590905,16.185159750984376,1.358508344918241,11.039742209407185,2.0188062071361843,16.29876244812621,1.3710964442491438,5.08006258822099,1.3607153301037311
16.470372184547877,1.8316023331807039,1.0572762008609211,0.4107797227199014,16.395217451854762,1.3676568092710273,11.041497353743548,2.0127162103555833,16.507769445681692,1.3697551352085084,5.112410710296656,1.360866451507302
16.67378073876183,1.8401273910573175,1.0708099856281321,0.41206797810635626,16.60191782565737,1.3688863728847553,11.043308487776907,2.0196212799578377,16.712959562387066,1.4004084177416227,5.144711796517716,1.3698460220004889
16.88187334594967,1.84974631322034,1.084466295677566,0.4175505807332861,16.809525035739192,1.3909771415780645,11.04517260189954,2.0219373017628928,16.91916578343111,1.4113776574440147,5.176864491410967,1.3756956915405594
17.08957513410789,1.8602791965171146,1.09799379414188,0.4197420246456438,17.016102570313727,1.399259489173975,11.04709252023329,2.0197691781268783,17.12570095883826,1.4108540807619283,5.208979146503539,1.3784263801806738
17.294903166625073,1.8705244211065026,1.1115794886403274,0.41849371922839984,17.221828738855645,1.3908193252828658,11.049069860195967,2.0188260241471165,17.331010113908132,1.4193734415367139,5.2410316263966115,1.3819712805856665
17.497149107106075,1.8790639788305281,1.125444925994219,0.4250572922842803,17.426643792214698,1.4169738725578467,11.051105290010817,2.0198966637231317,17.533973569125827,1.4294983815672122,5.273060242385539,1.386866327146741
17.69260505221854,1.886679232613724,1.139106680885144,0.42641011529215134,17.62537889506494,1.4215684844306755,11.053195298536512,2.020703240953237,17.731923112340393,1.4421298898638986,5.304945726377373,1.3915815872038035
17.89061797319059,1.8944660969433118,1.1529118652104688,0.43124920125037175,17.823887655589687,1.4397625397265934,11.055343744263476,2.0207624737909256,17.929369768189524,1.445482542873795,5.336848498925981,1.395720996568552
18.089786626764162,1.9030592928752426,1.166772653001354,0.4300458005827742,18.022459321196926,1.427673866976937,11.057551020554728,2.0206403849876864,18.12730328274303,1.4521079443525677,5.368698107649975,1.3997184302722396
18.292960067703316,1.913590678205438,1.1808581205503963,0.43340351122196524,18.224136868448788,1.439298468546249,11.059815867248927,2.0234473128704384,18.327746215858557,1.470426980325274,5.400420031762953,1.405764213262138
18.496446086145603,1.9241420335202388,1.1949240700155335,0.43553048806925865,18.426253348265263,1.4463551257363347,11.06213507007447,2.0231677504544723,18.52932833453142,1.482433370631635,5.4319460941369995,1.4096535505658978
18.691270318910842,1.9321719868292093,1.2090541148864442,0.4394326154810719,18.624524133374198,1.4610643775539118,11.064519302659416,2.0331554321373595,18.72644660297986,1.5036656361097145,5.463590905764603,1.4206516497957602
18.884300354872092,1.939978399642743,1.2232906482982402,0.44343922934431634,18.820063597710206,1.4727881614787766,11.066960441960882,2.029457177122268,18.92055229471669,1.4920926759575242,5.495109760468343,1.422037729828251
19.07702691058763,1.948248309677345,1.237387420744385,0.44371808340346314,19.01338280481249,1.472944524635703,11.069463556075819,2.029111438888032,19.113388200173574,1.5010191903802332,5.526586031248378,1.4257643655190635
19.26611200635669,1.9555745986163582,1.2516548053506769,0.4473619257215698,19.204813188403246,1.4856175655349566,11.072024741206587,2.0315786657748736,19.30344236769337,1.5177317322532795,5.557950193212859,1.4314757157671938
19.456600210170865,1.9642221221993197,1.2659854654729459,0.4491226505736149,19.395591064356353,1.4879030990627529,11.074650590118546,2.030574697430888,19.493217019197196,1.513903628086287,5.589360823287155,1.4346650809430603
19.640579345161157,1.9719067209058552,1.2804309191602183,0.4522255033688613,19.583083942772625,1.497002628068899,11.077338822779513,2.0303581191987377,19.679090267762195,1.519403424388531,5.620726705985332,1.4384026707197215
19.825988903685502,1.9797664711780556,1.2948714740113252,0.4551026864227711,19.769188928397302,1.5064710652647135,11.080082981721695,2.0251364017959532,19.86411374277727,1.5200476407135164,5.651933663017682,1.4385792007849971
20.00977556681294,1.987754278530794,1.3093553831009264,0.458025873274108,19.953905467496043,1.5152621989957575,11.082888101354825,2.0196660393142896,20.047883040165512,1.5214237645777486,5.68308797684436,1.4385283672537443
20.190905262292976,1.994747674087507,1.3240353872438801,0.4619826060002001,20.13710887780973,1.5245958079326993,11.085749922772825,2.0216838592935273,20.229538605620395,1.5454536982970553,5.714113238231393,1.443827286907789
20.37510262345205,2.0038070205511542,1.338694640986161,0.4634442044185571,20.3205332191596,1.5262343290171116,11.088675297962732,2.027161596668944,20.41211121402354,1.5602299895509422,5.745151347635567,1.45155563838149
20.55916433137655,2.011216096875217,1.3534744912746715,0.4651798654737373,20.504423441266127,1.5288299829921939,11.091653358011044,2.022842689460376,20.59495120985818,1.5564214660603217,5.775998517928764,1.4522384120793912
20.738306019380072,2.017526263951703,1.368286438174863,0.4659540932753893,20.685765066195316,1.5288992769786223,11.09471081057085,2.025611670735835,20.77522235709851,1.558983624089987,5.807058227179101,1.4579297440198296
20.91486738900908,2.024754262786431,1.3830972974651774,0.4712730482080473,20.86441908051114,1.5519964228525742,11.097831740114444,2.028203220149255,20.95279415118587,1.5665081315678115,5.838052212896472,1.463513423713351
21.091419193980446,2.0313445830466756,1.3978816405630659,0.47291468047119944,21.041385028335547,1.5536502440882394,11.1010024372864,2.027439676873472,21.12916020078249,1.577949798265999,5.868800756286654,1.466707614030749
21.265106242617293,2.0381019822605793,1.4127071960896047,0.47669488189386505,21.216608101848333,1.5670748618897268,11.104235496731276,2.0276747144674943,21.303402456497665,1.5853292643102703,5.899512503410361,1.4705769360606702
21.435115071906612,2.0448908165902835,1.4276034893990661,0.4760034958953481,21.38903225385025,1.5568534449925504,11.107530171337661,2.028915927452118,21.47462061520255,1.5935211260609352,5.930172996683224,1.4751488479791064
21.60470150789755,2.050083204796596,1.4426691427851481,0.4802625787157705,21.560443243807445,1.5714885516056314,11.110877985676456,2.0248176083582035,21.644305812519164,1.593587112993868,5.960676610653051,1.4758117736082357
21.77208574997002,2.055230177181925,1.457741326340579,0.48419763326715554,21.729473887898926,1.5832169664314277,11.114295034608384,2.0285950928395557,21.812159974852506,1.6083100873012643,5.991228667199762,1.4821830750220144
21.937103815421796,2.0608439468220516,1.472795533352396,0.48576606776952796,21.896128830377236,1.5849162422275034,11.1177807801216,2.0304608743585244,21.977826734364413,1.60735022572752,6.021815842102355,1.4871154131893234
22.109038246324683,2.066254001601183,1.4879736191743258,0.48730619366609285,22.065590076874045,1.5855583684307903,11.121324384426185,2.030615461051401,22.146663525569977,1.6129175866929768,6.052290526974242,1.4908060249895878
22.275264968585955,2.07046195650378,1.5030783828166772,0.48781384306513365,22.23302151462594,1.5866785117811104,11.124938793558812,2.037336688915321,22.313470209635344,1.6292392867353704,6.082796031027959,1.4993111304753568
