coupler,coupler,$D^a [mM]$,$D^a [mM]$,$I_{islet}^a\ [pg/islet]$,$I_{islet}^a\ [pg/islet]$,$\gamma^b$,$\gamma^b$,$I_{cell}^b [pg/islet]$,$I_{cell}^b [pg/islet]$,$G^b [mM]$,$G^b [mM]$
2.6971902374047514,1.069479034118772,0.5037727583483725,0.2242093000316518,2.648227363539267,0.44831150398356817,11.00066307785761,3.4856099480935274,2.1974540189506997,1.2730527784937213,3.2071193561071683,1.8784387191061247
2.978122330568991,0.9641818369477972,0.5076525242265187,0.2751678263207812,2.963506026265056,0.5173966518560339,11.001241583674314,2.6202335876901466,2.9303589787584152,0.4848058833261827,3.232943598206177,1.4137848955095762
3.258165178823423,0.9249542834003429,0.5114379495727132,0.2851087447710625,3.246894351743387,0.5476537843164633,11.001168939407915,2.3031116991034337,3.2606981676372384,0.5424702607572656,3.2631215032927243,1.2458465377485364
3.5376091670249212,0.9138620020257574,0.515602251157669,0.2867629094471866,3.526693279645521,0.5711423598027252,11.001007166498715,2.162375306308855,3.5450971303667176,0.5733944116213572,3.2958283820670413,1.1737974763586307
3.814871275545894,0.9186716412680782,0.5202458441599931,0.28902300347819876,3.8042290707200364,0.5980557120481966,11.000826530253567,2.0988260787868125,3.8229233296175704,0.6041654713871168,3.329685142899278,1.1440811937108333
4.090658007432258,0.932150465100505,0.5252716194548932,0.2909514763163465,4.080125739766721,0.6240031860571573,11.000652702284778,2.0584470831660555,4.09875531958724,0.6208641478692868,3.363932053609725,1.1272523174658748
4.365283282121032,0.9524422775251732,0.5307195092833789,0.2910917761147017,4.354866274846923,0.6401903729881921,11.000469548631813,2.0413702613343703,4.373359115521066,0.6425761368850068,3.398643220274839,1.1232878367531933
4.6395388954483785,0.9747338516931332,0.5365133060613243,0.2926237638862002,4.6291521104562445,0.664287312731369,11.000301018258828,2.032671561924709,4.647495517523743,0.6652167083891506,3.433397886320688,1.124079683562871
4.912608599298357,0.9983493853184019,0.5426585743622041,0.2943519381305804,4.902307799644829,0.685311213854398,11.0001464904729,2.0301156354582797,4.920517542450435,0.689287306994586,3.468126287705013,1.1283500371092678
5.18297187031864,1.022984890238555,0.549134295554063,0.29426389788712537,5.172949209427355,0.6982853442070078,11.000005194792335,2.0180015248591,5.190993148314535,0.6957872886466852,3.5027959071595345,1.127229339118116
5.453130478066141,1.0493306588478628,0.5559585954416201,0.29586165388050256,5.443178388429864,0.7180287200169788,10.999869444154328,2.022109700886007,5.461042711613639,0.7258180064636834,3.537596408168151,1.135194491218643
5.722982422005504,1.0762820866102332,0.5631167940180659,0.3000707225953843,5.713061579923487,0.7449383112920804,10.999755725813356,2.019403619234076,5.730752796145793,0.7395646680546951,3.5722440060642313,1.13932528219856
5.990378030111625,1.1015889433857622,0.5705865953242865,0.30135088736278437,5.980702306568045,0.7560109055514703,10.999660254275554,2.020699735248917,5.9982321212121645,0.7625258232160015,3.60681130637955,1.1457145790554495
6.257533059336711,1.1271211288265457,0.5782447270337927,0.30625422178534045,6.247877731722104,0.7888551475251352,10.999584412531954,2.023627829664184,6.265264130112515,0.7842293566752748,3.6412754101297438,1.1530181329688083
6.522738678374353,1.1523730697783194,0.586086516892233,0.30636308011416813,6.5131847598353785,0.7958047038227977,10.999535859249052,2.018598289362998,6.530496658660966,0.7967049783164167,3.675505586485665,1.1557386675212358
6.78709321301847,1.1761151084162633,0.5941814348809111,0.3085481597760831,6.77765919439192,0.8155774443331238,10.999498758272154,2.0168857817394863,6.794794797799432,0.8116365520268728,3.7098107920284398,1.1602441690668008
7.049228055226488,1.1989871233328748,0.602613973147417,0.3101630707443324,7.040059123750233,0.8263273878546462,10.99949034020197,2.015796075960929,7.056995479342769,0.8317849717426186,3.74394369741803,1.165113854213764
7.311808454556306,1.2227120404904899,0.6111802659900177,0.3113622484116531,7.302576675090635,0.8413461670075907,10.999500097137338,2.014684493042366,7.3193868788975545,0.844757696410016,3.7780887677023087,1.1698803897973287
7.573972972072124,1.2459902589886058,0.6199693479868844,0.31530648949566936,7.564747966939063,0.8657142149289896,10.999524927364597,2.020602271979093,7.581431092998875,0.8635926887014483,3.8123814561051246,1.178681292382303
7.833435599231455,1.2682119162729395,0.628986672500025,0.31786334768668556,7.824466143280772,0.8788208105142794,10.999587401392924,2.017649295331457,7.8409989282429695,0.8740396823012089,3.8464290939732333,1.1823274423668284
8.090047087705221,1.2891075605802456,0.6382062132978629,0.31766345259115975,8.081408470479728,0.8818523136986716,10.999677744997696,2.0213609970899538,8.097761283438597,0.8985571009565972,3.8804070880924724,1.1898815578756559
8.346079863831557,1.3101550883640556,0.6476582255243172,0.3206561555991675,8.337558334532954,0.9021630994672138,10.999790105172359,2.020698767640744,8.35371660112123,0.9038835134305863,3.9144329136392515,1.194754224014682
8.599368043248644,1.3306418390204118,0.6571671376891961,0.3215472269393219,8.59105522749555,0.9121536302780511,10.999937112221522,2.021751446534396,8.607128156768402,0.9229995052381194,3.948333893307515,1.2006645601296058
8.854484495286773,1.3507534710977929,0.6669656196352524,0.32692136599992944,8.846015836570682,0.9387700915124468,11.000114429605105,2.0147822737980756,8.861921764040927,0.923462654510323,3.9821878283894243,1.2017089144737685
9.107305314889045,1.3704966354974204,0.6768171106459936,0.32693813316010756,9.098971542769025,0.9396896424528681,11.000326519904197,2.0200831788980094,9.114798404281863,0.9553525804001206,4.015964771388878,1.2101246739067115
9.358443275790759,1.390145713225261,0.686989478038063,0.3319224898665924,9.35037216352013,0.964490306164114,11.000564994730858,2.019357114000333,9.365958044954239,0.9566514004356044,4.0497989424151015,1.2148137097046432
9.606907290670245,1.4089942986570945,0.6971348609177456,0.3340741059853157,9.599033677116424,0.9770591657975721,11.00084302136753,2.018818580840474,9.614549873499024,0.9729400272365907,4.083491746721132,1.219636880432968
9.854020999037168,1.427616451033727,0.7074317846045921,0.3347316657028062,9.84628585596901,0.9819696247999137,11.00115805355842,2.0161360975718754,9.861661945726157,0.9840195528378627,4.117069435771796,1.2231263869894358
10.10029674303416,1.4448638912822214,0.7179610936228608,0.33805695656671425,10.092684011399356,0.9992421479883636,11.001503347200456,2.0138433821219497,10.107878472396543,0.9898812624236693,4.150737383795188,1.2267525425605617
10.347034359572055,1.4632221419333682,0.7286495750698384,0.3398947021600451,10.339350045094472,1.0064990397711113,11.001886361201889,2.0137416145954394,10.354419745940044,1.002953380532586,4.184398520613625,1.2316992098096882
10.59092934569803,1.480492355157621,0.7394588041407626,0.34165882209166354,10.583524679490923,1.0168131754031082,11.002312373734073,2.0159110150159067,10.598431539273584,1.023458618354436,4.217902937683594,1.2380717935940073
10.830612646225552,1.4969971823741024,0.7505773960776699,0.3483376464109708,10.823723826735044,1.044943600028183,11.002774612617818,2.0167170520043607,10.83840214194086,1.0323255979695405,4.251390702788479,1.2435449327574681
11.073417028429082,1.5143555051904416,0.7614555037353441,0.3478001097735683,11.066065971597594,1.044904209138776,11.00328270087548,2.0137844693011737,11.08077098347397,1.04568439047447,4.284627998686473,1.246722518561455
11.311365407007502,1.5307647171670113,0.7726628355706445,0.34977687208760994,11.304545763716675,1.0535368144263688,11.003824042485551,2.017548564046401,11.319022577995087,1.0601819913565573,4.317999929162921,1.253957564691915
11.551107817130573,1.5473372264681666,0.7839667433608409,0.35334095931059956,11.544115265949982,1.071435423381871,11.00440932319818,2.0178145663097196,11.55846622008374,1.0698520865966277,4.351247956651366,1.2590122155704953
11.790535429276023,1.5641119621692288,0.795359427633748,0.3552379968128638,11.783500643720192,1.078512297659052,11.005039768981964,2.0075761342831915,11.79774820687463,1.0651644123374744,4.384336930228091,1.2574366420408258
12.025394070161028,1.5789705056438754,0.806829619169691,0.35656056631069694,12.018816828963747,1.0858853716204997,11.00570907472313,2.012033943347227,12.032917702827008,1.0890946594863191,4.417598793702379,1.2650258449066163
12.261429209760458,1.5949588814138478,0.8184790501746609,0.3577803165883565,12.254762252531743,1.0904660075911843,11.00642473760389,2.013490785432929,12.268713865948376,1.0990362597048602,4.450749895378324,1.2707318042206555
12.493769282031304,1.6087669374816334,0.8304085050021199,0.3631164514218453,12.487523469992658,1.1122922949942216,11.007187458542782,2.0126725897184503,12.50125584074366,1.1103860659004012,4.483747467876011,1.2749957861259702
12.726567446764543,1.623928966097898,0.8422233039139423,0.36672598596358863,12.720203090603805,1.1288989253717587,11.007994011745454,2.0172632877704024,12.733884215695994,1.128654701885258,4.516748356320088,1.2826603189466184
12.956315575541424,1.6377608088713052,0.8541049573976242,0.3678934124826246,12.950213885814819,1.1315591602915072,11.00884793015019,2.009042392712912,12.963773800970104,1.1202066901694914,4.549590353923606,1.2821038186821028
13.18673457390027,1.6514823100180422,0.8662115918263272,0.37050559483042056,13.18060657165782,1.140905881120886,11.009747491803973,2.0124613976840777,13.194004552795807,1.1418956388216714,4.582537715378443,1.2889477225714876
13.413772989427354,1.6644913852131946,0.8784947553844128,0.3740953024056857,13.408002224579436,1.1536035800495439,11.010695437076455,2.017946793032226,13.4212170218712,1.1574801482853176,4.615447575687276,1.2971214207773454
13.641254686240746,1.6785189780218248,0.8905735955812616,0.37493154451044874,13.635351371353982,1.1615195040929258,11.011692432240428,2.023295030351595,13.64852555282266,1.1717343579117947,4.648274095006847,1.3052159501023493
13.866902371791452,1.6923585081517176,0.9029324221177566,0.37861818095656685,13.861193022932715,1.1747232519442639,11.012739160245406,2.0225301852219664,13.87419463889108,1.1754790642011843,4.680969269471494,1.3093396608118104
14.090072372538055,1.7043102692613514,0.9154051431533887,0.381753440521053,14.084625464991506,1.1843540866680788,11.01383580715018,2.018078963304208,14.097475093725487,1.177521361577628,4.713590514842084,1.3110212395495036
14.317280765734209,1.7176716911313485,0.9278931199835334,0.3844308036265678,14.31137200498451,1.195312656007852,11.014983712812597,2.011582196943161,14.324145243991143,1.181252915002916,4.746126914886529,1.3113236575847977
14.53940927983187,1.7298230552792975,0.9406718728650896,0.38725280150081,14.534021597565976,1.1999953489110537,11.016183604089825,2.013732160949159,14.546590715696698,1.2036754985478488,4.778642066795631,1.317253863513993
14.75880966429398,1.7412058815665774,0.9533268721802891,0.3917006013796424,14.753700923557776,1.2239264322962577,11.017434518263526,2.0144671360196353,14.766152957334821,1.2069623302467631,4.8111850551006965,1.3221950223661438
14.979261268907939,1.7538151364245005,0.9660973268541836,0.39148592853851155,14.974009360839862,1.2147722604873288,11.018738665264628,2.0110846790836217,14.986373761229267,1.2083478538124892,4.8436513316029455,1.3244034243779377
15.19802936765071,1.7650141667314947,0.9790428925054532,0.395114129995077,15.192968844491208,1.2314624468716444,11.020096909395887,2.0122022252688243,15.205147029966227,1.2273470528717727,4.8760191130687005,1.329588093577838
15.414034901650448,1.7768063193464536,0.9920016673670187,0.39844774029048446,15.40922577974104,1.2440483243443419,11.021508696531411,2.0128486563216628,15.421288141250747,1.2312410001057408,4.908419843214885,1.3343985278208936
15.625407839748085,1.7876798658254696,1.0051722301273351,0.40188081024887845,15.621124273159255,1.2517075827498318,11.022974803680029,2.0161969118634016,15.633000732340342,1.2487016908106374,4.940719157867241,1.3410202456124967
15.840984316161363,1.7999044615676107,1.0182686344129441,0.40285637604505453,15.836236340270794,1.254828348414393,11.024495842131893,2.018077586465562,15.84804574648459,1.2491347611101988,4.973094385431551,1.3465995885680637
16.050167271485215,1.8099503933908831,1.031581443583587,0.40579586741816565,16.046065846796463,1.264070123308141,11.026071455385813,2.0211179953972085,16.057677177085388,1.2716339801772538,5.005220990289212,1.3530218675304653
16.26150637865358,1.8209376412104281,1.044833916624858,0.406659919605598,16.25717038130766,1.2669160142407259,11.027700312115678,2.023195711103874,16.268698655078776,1.2799099434987353,5.0372905301081845,1.3587519912358077
16.470372184547852,1.8316023331807039,1.0584566064750605,0.41045731245541317,16.46631680352811,1.2758374484659825,11.029386512996403,2.025903628944756,16.47764415511178,1.2837222332349951,5.069436884323203,1.3648425197273364
16.673780738761867,1.8401273910573175,1.0719987128286184,0.41273731175093575,16.67028405671655,1.284365619066674,11.031126850954655,2.0284449362373826,16.681468806688645,1.3022232280119266,5.101361333806385,1.3708702575496352
16.881873345949725,1.84974631322034,1.085394664903289,0.4174030217940064,16.877832807219157,1.3093847160955454,11.03292212682427,2.024170450117991,16.888987930119672,1.2947466435938837,5.133252334501382,1.3722043848646404
17.089575134107907,1.8602791965171146,1.0988973931324004,0.4187733432920566,17.085457054487268,1.3065258523034147,11.034777304093467,2.027525524939132,17.096536788985624,1.3132476103178052,5.1651679510568425,1.3787002004610656
17.29490316662509,1.8705244211065026,1.1124041568687006,0.4207778746004178,17.291005435106577,1.3157137845177274,11.036689637771724,2.0287450331342973,17.30194487174668,1.3213246469935254,5.196975033399536,1.3837367394483886
17.49714910710603,1.8790639788305281,1.1260554661537596,0.425180963753543,17.49358390861736,1.3314854892323853,11.038656950969253,2.019575643692803,17.504368078420388,1.311122670244886,5.228616892506084,1.381627503169471
17.692605052218546,1.886679232613724,1.1398742406066804,0.4271714833980274,17.689795988966612,1.3298407903116074,11.040683671686518,2.0161116114914877,17.700392439800765,1.3233037003346066,5.26024811308992,1.3833787005905915
17.890617973190633,1.8944660969433118,1.1536714687624545,0.42773927676605433,17.88757705020957,1.3306943602653507,11.04276461960761,2.0159506645642455,17.898061803121994,1.3412786910112853,5.291736907702049,1.3873974613817923
18.08978662676416,1.9030592928752426,1.1676419439639727,0.4335493885943795,18.086583104284717,1.3547117866834741,11.044908850091197,2.0181196288588135,18.09694107960196,1.3430875895525092,5.3233637574549135,1.3929318392983208
18.292960067703277,1.913590678205438,1.1815490579044203,0.4326024281937943,18.28921623153659,1.3422423645112556,11.047109454482655,2.0208926126126703,18.29954185731017,1.3600960052268198,5.354818717781213,1.398922423625784
18.496446086145603,1.9241420335202388,1.1956413083594588,0.43465929418212157,18.49262697541006,1.3501364929469692,11.049374483650988,2.0210179991069235,18.50279975854551,1.3570481143355475,5.3863183344018655,1.4030107890510946
18.691270318910842,1.9321719868292093,1.209863882425539,0.4385589508032217,18.688356305246327,1.3631753315206616,11.051698486260301,2.014786511544554,18.698337613628503,1.3542727332408215,5.417661863174167,1.402667452917397
18.88430035487214,1.939978399642743,1.2239914072224025,0.4417548605513097,18.88160297864484,1.3754309117127739,11.054085613107736,2.020174639919543,18.891485269322217,1.3826706562538036,5.448998614323235,1.410423586224516
19.0770269105876,1.948248309677345,1.2381503839798902,0.44458292496766716,19.07433319284893,1.3834255234986843,11.05653329158294,2.0133297768948246,19.084111583554737,1.3618708434979305,5.480296297611489,1.4095475537076207
19.266112006356675,1.9555745986163582,1.252450769394065,0.4480712698320244,19.26379514761706,1.3920485409230607,11.059048339129893,2.0156205440859725,19.273424429713327,1.3802156712286326,5.511641915720401,1.415064843956278
19.45660021017088,1.9642221221993197,1.266684663754268,0.45158889980010547,19.454109918884747,1.4054885402706472,11.061617975650337,2.022057123271315,19.463650663845822,1.4075875391532613,5.5427893078274755,1.4235519563486914
19.640579345161164,1.9719067209058552,1.2810049571947884,0.451547492939885,19.638738744851874,1.3968226091289724,11.064253848218192,2.027096682744694,19.648120800322882,1.4077519684197866,5.57400547818252,1.430987322602848
19.825988903685502,1.9797664711780556,1.2954640144595193,0.45347314825275464,19.8240613474295,1.4025984527635758,11.066946330778274,2.023429934290643,19.83329918980249,1.4003475954792752,5.605086904999671,1.432254810683986
20.009775566812944,1.987754278530794,1.3099082055575917,0.4569199553954913,20.0079596187137,1.4168081211523682,11.06970144031919,2.0205663454414045,20.01709249968483,1.4051923299406865,5.636124113381395,1.434062684095447
20.19090526229292,1.994747674087507,1.324420830519205,0.46108647454609997,20.189342990765162,1.4292364432081675,11.072513036665313,2.025685236777945,20.198352477349143,1.4354427858013692,5.667014351047638,1.441574927400308
20.375102623452133,2.0038070205511542,1.3388791558932902,0.46369087657449315,20.37317071981286,1.4361111200508627,11.075391219131872,2.0304469467277326,20.382113949261356,1.4375039291850353,5.697963666029297,1.4487684576131061
20.559164331376536,2.011216096875217,1.3535049422381082,0.4639494513682563,20.557191681280905,1.427804480064585,11.0783239346738,2.0253289180149907,20.566008575594132,1.429574105961599,5.728728812137284,1.4488909934984613
20.738306019380023,2.017526263951703,1.3682803075136183,0.4656064638755459,20.73686454276713,1.431145902051991,11.081335777749626,2.0304188598533863,20.745500978559935,1.4432852600416526,5.759673272288317,1.4562699635160175
20.914867389009054,2.024754262786431,1.383077960665497,0.46840480280811303,20.913720216060995,1.4411262308997126,11.084398789582487,2.025599580191497,20.92221746604076,1.4387619553091937,5.790377710111695,1.4565520069142137
21.091419193980485,2.0313445830466756,1.3981186550413396,0.47388575600539146,21.09029450562978,1.455507507604917,11.087525976763303,2.0283683421651326,21.09865266260123,1.4589635031425314,5.82105506516968,1.4622811896814687
21.265106242617307,2.0381019822605793,1.4128635449305351,0.4774232346367112,21.264193384935858,1.471198440115007,11.09071028715347,2.0305273593447795,21.272477581326726,1.4693959664994178,5.851611705476464,1.4675601033284345
21.435115071906633,2.0448908165902835,1.427647051015314,0.47789960811016235,21.434570245493163,1.465654352027191,11.093950728066279,2.0304597967069435,21.442734906613747,1.4747689853634165,5.882050045120999,1.471201928009126
21.604701507897545,2.050083204796596,1.4427002595711647,0.48207708737206856,21.604256244055506,1.476678703885959,11.09725248190624,2.0303096905538105,21.612254984983146,1.4790817892301984,5.912446031842183,1.4747423242516449
21.772085749970028,2.055230177181925,1.4575612603353105,0.48256784508718437,21.771808243020388,1.4765922367197488,11.100617319454887,2.025802550556597,21.779721260028868,1.4710898921736586,5.942810283605968,1.475060932042751
21.93710381542181,2.0608439468220516,1.4725058054501072,0.4841257337586908,21.93706934659203,1.4802426222422926,11.10404089642062,2.022543365254897,21.944854064718378,1.4786351691839428,5.973081365738616,1.4762751951728554
22.109038246324676,2.066254001601183,1.4876315300515364,0.48898065836154364,22.108259559081855,1.49499364851965,11.10754433893435,2.0279432836987823,22.115970977547484,1.4903153923671641,6.00351415706027,1.483766752562728
22.275264968585933,2.07046195650378,1.5028416245298346,0.49192257775241444,22.274989841704098,1.4973760900166346,11.111094428445545,2.025364166306536,22.282552851980263,1.4919379311133791,6.033684468710927,1.4854455396069597
