coupler,coupler,$D^a [mM]$,$D^a [mM]$,$I_{islet}^a\ [pg/islet]$,$I_{islet}^a\ [pg/islet]$,$\gamma^b$,$\gamma^b$,$I_{cell}^b [pg/islet]$,$I_{cell}^b [pg/islet]$,$G^b [mM]$,$G^b [mM]$
2.697190237404906,1.069479034118772,0.5037708284006068,0.223039090214847,2.305204914924878,0.4462526120555597,11.000395354401359,3.497094138516562,2.027718692997735,1.4612381332768072,3.2063658900482648,1.8846133148548863
2.978122330568974,0.9641818369477972,0.5066213232701087,0.2740025862526616,2.498086403387757,0.5580162448529077,11.002641524613736,2.6345935673636527,2.7341961707320364,0.6156339701392186,3.2375822533965497,1.4213638308856384
3.2581651788234267,0.9249542834003429,0.5094068391209324,0.2844192879773643,2.6755167905052724,0.6002638170667483,11.003421085170395,2.3162356467802927,3.2018677651238003,0.5530070241808996,3.2706796509668776,1.2532193883948153
3.5376091670248884,0.9138620020257574,0.5124653736829903,0.2854058152691427,2.857313877506978,0.62248606905531,11.00371664424017,2.1698936806147935,3.5401745458753906,0.5933105392341164,3.3046665914378446,1.178615281365605
3.8148712755458565,0.9186716412680782,0.5158748528769622,0.2877516951112025,3.0474097320229196,0.647834911421286,11.003845544342873,2.0937490348571313,3.8355662897363145,0.6191550454178953,3.339398903239554,1.1423043233017107
4.090658007432191,0.932150465100505,0.5197066647301615,0.29006712270081364,3.248197092310255,0.6716569336893505,11.003912191837289,2.0558320369771015,4.1168821544976275,0.6458468392859857,3.3745278913548074,1.127007217704122
4.365283282120957,0.9524422775251732,0.5238841044729894,0.2893722254700884,3.455762084510646,0.6889065019903303,11.00394136997145,2.0379417326055176,4.3930939549917,0.6682450598918381,3.4099416279975183,1.1227577467108387
4.639538895448328,0.9747338516931332,0.5284264389532155,0.2920566873713982,3.670315706076629,0.7152105938637168,11.003961901843729,2.034990910244617,4.6674804600390605,0.6977319670836817,3.445393529077673,1.1268781157091172
4.912608599298327,0.9983493853184019,0.5332288982722333,0.29201700283632187,3.887493160966316,0.7345959225909301,11.003995394243331,2.023324536321004,4.940384658092445,0.712199109543629,3.4806052738117597,1.1261904366571067
5.182971870318581,1.022984890238555,0.5384540455132751,0.29357869494271893,4.112837193930513,0.7561479576290944,11.004035721130771,2.0159859618087785,5.211066029779981,0.7351432869974672,3.515655778976441,1.1279017098347865
5.453130478066094,1.0493306588478628,0.5439729754135192,0.2957471276487668,4.341714900214646,0.7803050568544868,11.00406032774011,2.0149300685078866,5.480950536364956,0.7537820417996708,3.550842272437031,1.1330038774732658
5.722982422005457,1.0762820866102332,0.5498600858123475,0.29644466345940496,4.57615895559465,0.7987352381815505,11.004091028515415,2.0166953548125743,5.7503652649568515,0.7750380711090372,3.5859819093635514,1.1396918578327384
5.990378030111631,1.1015889433857622,0.5560530037683431,0.29832697139217657,4.813954523381227,0.8211522300586906,11.004117687419248,2.018194340628702,6.017958864368184,0.7886598938481313,3.6212179295920888,1.146148983672933
6.257533059336652,1.1271211288265457,0.5625554225972008,0.3013109511032554,5.054869309244857,0.8462502622116419,11.004182291024225,2.0207001687055213,6.284738991222253,0.817775528938832,3.656072817734917,1.1533233945407064
6.522738678374349,1.1523730697783194,0.5692896250897385,0.30340725386157147,5.29649434983688,0.8686878587374907,11.004256160075528,2.017781895903201,6.549905495466991,0.8303133008751066,3.690836373653704,1.1572794414157526
6.787093213018479,1.1761151084162633,0.576187705135178,0.3033351726837015,5.537153375822749,0.8845322282823719,11.004346550822602,2.0145671862638985,6.81407068551771,0.8465056194795272,3.7254939697250733,1.161003319802211
7.04922805522655,1.1989871233328748,0.5834228124000747,0.3059231222040039,5.78169792568242,0.9068165751583086,11.004447349402502,2.0089453876842738,7.076394995558293,0.8557609828921482,3.7601547851237083,1.1632205194771437
7.311808454556253,1.2227120404904899,0.5908785254884439,0.3074542530031094,6.027089375389995,0.9256148330052288,11.004566693066915,2.0117507066168456,7.338484123519424,0.8801218884193922,3.794785678305184,1.1703240940882982
7.573972972072105,1.2459902589886058,0.5985838529233909,0.30933569530015054,6.2741604579299315,0.9449773199753964,11.004698160206994,2.0190563833155983,7.600169425939616,0.9002566845202313,3.829478486443487,1.1800113399438616
7.833435599231359,1.2682119162729395,0.6065717851962363,0.3118625883212849,6.523464979464082,0.9655709174339876,11.004861638772315,2.0179497165536486,7.859814578447824,0.9119983403827762,3.8639494925071287,1.1847865057478688
8.090047087705189,1.2891075605802456,0.6148453999154729,0.31279361508194514,6.77474072579409,0.9799931481825487,11.005054534291583,2.0141136973047544,8.116895964961385,0.9262258374367532,3.8982391443337905,1.187927080409331
8.346079863831523,1.3101550883640556,0.6232883037194692,0.31413148148216286,7.025274693846868,0.9967879662669107,11.005267813024036,2.0114922152908616,8.372814899717836,0.939135793880153,3.9325197812475805,1.1916941394125007
8.599368043248644,1.3306418390204118,0.6319576709839676,0.31694367851621724,7.276044030579458,1.0176972351622378,11.005513259052297,2.0031899562430757,8.626436215163453,0.9475487454181217,3.9666159156620346,1.1920394010580107
8.854484495286831,1.3507534710977929,0.640810129475238,0.32103732663361206,7.52644409133193,1.0426391161152175,11.005765985532857,2.0150519256036605,8.88076391302729,0.9755051029839785,4.001043480804455,1.2043208865269217
9.107305314889095,1.3704966354974204,0.6497882549360102,0.32271145532708045,7.775162259133435,1.0587434943981968,11.006065718359935,2.0159131083392463,9.13347322115559,0.9902477752896593,4.035088243276853,1.2101093055150287
9.358443275790755,1.390145713225261,0.658987699124601,0.32403153011845115,8.024569401630725,1.0727130874764572,11.006377940729983,2.0214640752015858,9.384734242972968,0.9998005092900886,4.069395403880824,1.2185811625674856
9.606907290670232,1.4089942986570945,0.6683825513024721,0.3266571957694144,8.273978557666634,1.0912417489603679,11.00672951180042,2.025374279605903,9.633617683992663,1.0163164656408115,4.103550058470538,1.2261265587364218
9.854020999037155,1.427616451033727,0.6780173462970969,0.32802373389070005,8.524144768349574,1.1040121699583285,11.007122517833153,2.022875662193334,9.880778812526202,1.0276353635320659,4.137468335873542,1.2297954811821754
10.100296743034226,1.4448638912822214,0.6878778706366002,0.33194653395020507,8.774894216237476,1.1261513699907668,11.007546782619922,2.024359663007706,10.126897193361755,1.0445769868442614,4.171364243197401,1.23583710421606
10.347034359572032,1.4632221419333682,0.6978326717948632,0.334057634754772,9.023487223773328,1.1418426118882348,11.008006869108879,2.0188159848893132,10.372981614372183,1.0471405620164764,4.205174162557689,1.2375063697619315
10.590929345698013,1.480492355157621,0.7079218490740741,0.3365007495766592,9.270779923135727,1.1585196182682336,11.008501930034317,2.0172241670185858,10.617152346676333,1.0611706448713734,4.238968243134131,1.2415591935090575
10.830612646225601,1.4969971823741024,0.7181546103171905,0.33816196997349723,9.51673068135954,1.1716783901657384,11.009040062334725,2.0159310657155984,10.857717301953471,1.0806284044875778,4.2725237218864764,1.2458183612684002
11.073417028429109,1.5143555051904416,0.7285098732388907,0.340715636723686,9.761593911664542,1.1881681465421101,11.009609029592275,2.011943712065144,11.099398359231598,1.0817949963903388,4.306162080295238,1.2482697154204883
11.311365407007504,1.5307647171670113,0.7391395873044225,0.3436726884934712,10.007765160631562,1.2042549781563052,11.01022005724313,2.010816799841303,11.338075246448096,1.098608401178209,4.339675886200261,1.2525056746458614
11.551107817130543,1.5473372264681666,0.749848599707298,0.34558138461157456,10.252048426083181,1.217455521502978,11.010865411427677,2.016259020315383,11.577071300818151,1.1152585138247197,4.373296352333621,1.2607826592488343
11.790535429276076,1.5641119621692288,0.7606501806954703,0.3479407017917187,10.494753273787804,1.2324256229732642,11.011554456596548,2.0180892340479555,11.815908416946973,1.1252928500080928,4.406814606988971,1.2668000889921793
12.025394070161045,1.5789705056438754,0.7716844111582197,0.35099073222869615,10.7380323948409,1.248389326172382,11.012290038252873,2.013114403404456,12.051521062918175,1.1316356698891976,4.440111938782379,1.268530924627131
12.261429209760479,1.5949588814138478,0.7828142230899314,0.3549772494974003,10.979809545663313,1.2685716946494399,11.013065393867889,2.015104463105056,12.287026045971482,1.1486089597628288,4.473450385143176,1.274600560126885
12.493769282031229,1.6087669374816334,0.7939745493107696,0.3567816890700853,11.218650784293734,1.2804452503527524,11.013883456353305,2.0164442670807268,12.519887071874669,1.1593092390240125,4.506742324918854,1.2802266877609492
12.726567446764504,1.623928966097898,0.8051530770509668,0.3577091823187874,11.454851126132384,1.2893090391780735,11.014746233723605,2.016612293330318,12.752276354367888,1.168132160639233,4.5399860478436755,1.2850780645705489
12.956315575541472,1.6377608088713052,0.8166235391618173,0.3589152355749286,11.692923352572215,1.2967957778132595,11.015654257019438,2.020373502294775,12.982413709705174,1.1848942447498974,4.573190061595152,1.2922170724237239
13.18673457390028,1.6514823100180422,0.8281849858243396,0.3658002706856717,11.929786234728967,1.3278434615792032,11.016609613742347,2.021184757760547,13.21228325596728,1.1950168113595097,4.606276375669653,1.2974548896079063
13.413772989427306,1.6644913852131946,0.8398100262056072,0.36512722098663963,12.164328466055066,1.3277601180235599,11.017611424226208,2.023414975833884,13.439758522384112,1.2093274479635576,4.639289050445748,1.3035858660524247
13.641254686240796,1.6785189780218248,0.8517212263208667,0.3674205491940565,12.400957924682093,1.3389646969992877,11.018660933885021,2.0227334581429517,13.666785894390301,1.217605250281055,4.672196046615992,1.3078070903697332
13.866902371791529,1.6923585081517176,0.8635114814518479,0.36792956358915585,12.632785293404758,1.34573357886714,11.01975573390505,2.0226250111139463,13.892485144705708,1.217869375141323,4.705260817486689,1.3122974215201273
14.0900723725381,1.7043102692613514,0.875663070453137,0.372935265911702,12.867227074834956,1.3667380907901896,11.02090471084696,2.0210546181626565,14.11597484777654,1.2359305643161933,4.738019480203456,1.3159163125285693
14.317280765734163,1.7176716911313485,0.8878728847621036,0.37620479147614005,13.1000936139011,1.3815642385362044,11.022101570811207,2.022668638464333,14.341607215106157,1.2471141238273211,4.77082624592941,1.3215352683041746
14.539409279831872,1.7298230552792975,0.900039913883707,0.37659717915223206,13.329514848380635,1.3862228675863906,11.0233496504424,2.0156530517828872,14.564344258502267,1.2475191501395213,4.803417953669743,1.321482121552767
14.758809664293995,1.7412058815665774,0.9123414591432024,0.38248281355641905,13.558182470881748,1.4121091580526588,11.024647573063334,2.0170969279405875,14.784377913612753,1.266285836118152,4.83602167620786,1.3269382391854412
14.979261268907846,1.7538151364245005,0.9247091506554226,0.3842040027962769,13.785143340843602,1.4201097637554896,11.025996239836624,2.018585288669776,15.004288736504261,1.2685479512523667,4.868745698962192,1.3323410452895277
15.198029367650669,1.7650141667314947,0.9372884749709485,0.38486878718592205,14.012877162242969,1.4232963007291197,11.027399429369346,2.0157132965324434,15.222987148867386,1.272933580699654,4.901329482128602,1.334872502639046
15.414034901650428,1.7768063193464536,0.9500443622956634,0.3894129472199592,14.240595468307188,1.4425008216284232,11.028856090909782,2.0171520119327884,15.439392005699293,1.2916926100374115,4.933805297661071,1.3402707449120053
15.625407839748167,1.7876798658254696,0.9628119056931373,0.3906036209520533,14.465255523516168,1.4484980745636955,11.03036429763945,2.022260722363846,15.651851282297343,1.3113615432575139,4.966199126824539,1.3481014187891731
15.840984316161336,1.7999044615676107,0.9756706083643717,0.39396210208899546,14.688845019594496,1.4633403929352378,11.03192436119101,2.01816992642149,15.866006021199839,1.3081286143073054,4.998463919938458,1.3497358635397843
16.050167271485154,1.8099503933908831,0.9886065217538542,0.3957457344258059,14.910522370431005,1.4712045075004287,11.033538043251925,2.013069975382176,16.076326152101604,1.3105673820543968,5.030676509895417,1.350636264042957
16.261506378653504,1.8209376412104281,1.001484506572799,0.3980384149599903,15.12905311373896,1.4825301356945766,11.035209015872724,2.019723258113853,16.286985541458595,1.3310578056673605,5.063030157715836,1.3593961249987596
16.4703721845479,1.8316023331807039,1.0148440081888561,0.40349975681079814,15.351495893493658,1.5017585289412783,11.036933063962008,2.0178934464834053,16.49590800680669,1.3368992207272996,5.095118391941862,1.3624683297543652
16.673780738761792,1.8401273910573175,1.0279363008565177,0.40568580565273044,15.567489276830807,1.5126711373461021,11.038715563287756,2.0251591908887625,16.700654282031635,1.349661783957475,5.127417441907545,1.3716135367367166
16.88187334594961,1.84974631322034,1.0412167840749864,0.407390632654484,15.78366430549611,1.5190663343288706,11.040553998532875,2.0221562432267723,16.907275690397658,1.345198443368036,5.159560331034165,1.3738001603024246
17.08957513410787,1.8602791965171146,1.0545708025332687,0.41020144376529616,15.998820831511537,1.530586248706908,11.042446785617386,2.014525098654034,17.1142153037145,1.3502502770512967,5.19145671322545,1.3728434575789574
17.294903166625055,1.8705244211065026,1.0680844581949824,0.4150616262127421,16.21378003383522,1.549334698717888,11.044399393068467,2.0134169051062214,17.319648271431955,1.3599201381326322,5.223441802843789,1.3762529852660426
17.49714910710613,1.8790639788305281,1.0815336095784733,0.41757315167983255,16.42548390891498,1.5597178916239995,11.046410887233586,2.015883383381002,17.522454705079472,1.3734682299138838,5.255404064243102,1.382093608558938
17.692605052218532,1.886679232613724,1.0950530851575144,0.42056335880153545,16.635232341064853,1.5715420429462266,11.048478318822808,2.020628664713357,17.719726589419974,1.3909586086547494,5.287260648340861,1.3895100819751314
17.89061797319054,1.8944660969433118,1.108519882921001,0.4200141211357653,16.842036908665346,1.5697584876144857,11.05060464470694,2.0279345005914657,17.917093952980302,1.4040191088781735,5.319140695580295,1.398664023992548
18.089786626764166,1.9030592928752426,1.122011592150784,0.42195271246146343,17.047334695668447,1.5783619218101128,11.052783625613246,2.0234342177149522,18.11525247839491,1.399398609526104,5.350787283482567,1.3996609042545685
18.292960067703362,1.913590678205438,1.1359363835670844,0.426921846042341,17.256452813408508,1.594852421985626,11.055021975220445,2.018589394608074,18.316499305815487,1.4019801152401103,5.382382492563531,1.4003648973806522
18.4964460861456,1.9241420335202388,1.1497883742876476,0.4242362579434633,17.46336795074089,1.5831369138464217,11.057323294645565,2.0150048268421172,18.51890260254844,1.4056088442672563,5.413977880346924,1.401888088816567
18.691270318910846,1.9321719868292093,1.1637759025120165,0.43055220188373605,17.669835707195567,1.6087032759538944,11.059691050111633,2.022409304083982,18.715670864688978,1.4288282932262055,5.445641499351087,1.4110553867382272
18.88430035487204,1.939978399642743,1.1777234023937337,0.4314287451152064,17.87324384583898,1.611248011755914,11.062111724571254,2.0226120039362545,18.90936532520152,1.4358596260786363,5.47706202048425,1.4152155606404646
19.077026910587666,1.948248309677345,1.1919488419726187,0.4369059795747283,18.077855687275573,1.6308361948846448,11.06459760208648,2.0290719935636816,19.102007177420198,1.4502663311764898,5.508558478372034,1.42371427051034
19.266112006356703,1.9555745986163582,1.2059937057404304,0.43992443375004786,18.277955495170204,1.6429689199389477,11.067140462362612,2.026592104130489,19.291747774648407,1.445291528815203,5.539918433926187,1.42591347596576
19.456600210170844,1.9642221221993197,1.2199645889776292,0.44302815853859584,18.475211065172054,1.6554885400112085,11.069751292110684,2.031374903510148,19.481650783034418,1.4588986008521942,5.571359685827716,1.4332005838979782
19.640579345161147,1.9719067209058552,1.2341620299886622,0.4440539423021092,18.672620277330903,1.6567262655061137,11.072414198535423,2.0341131928185288,19.66698901084008,1.4756315618938525,5.602554553816848,1.439091202275714
19.825988903685502,1.9797664711780556,1.2484847808354862,0.4505196144541866,18.869538187012832,1.6809436589231026,11.075132811383218,2.0309626848853286,19.851935718457923,1.4743489583436815,5.633631751732728,1.4407595155586794
20.009775566812934,1.987754278530794,1.262687214240119,0.4494596025276995,19.062888903961113,1.6754712117626775,11.07791946724396,2.0318624594147034,20.035714709019977,1.4794281794605113,5.66479237103715,1.4452393399757295
20.19090526229305,1.994747674087507,1.2769648243218357,0.4511688106749072,19.255076187253223,1.6815519410326762,11.080762234198282,2.030344983330548,20.217235338308434,1.486188246456511,5.695800234313216,1.4480029183016223
20.37510262345195,2.0038070205511542,1.2916181473289223,0.45550707914313837,19.449568846452784,1.6947208521092558,11.083668382925925,2.0265586780969804,20.400209755770064,1.4835610215405324,5.726791289012442,1.4490898091177584
20.559164331376568,2.011216096875217,1.3061141946950139,0.4613701940780796,19.640757408597118,1.7175515750395263,11.086635830248367,2.02138190003185,20.58354230136245,1.4845544755456856,5.757700803058505,1.449151664757114
20.738306019380136,2.017526263951703,1.320510979679949,0.46106345797676934,19.82871184764206,1.7150163998019252,11.089679953578957,2.0288525988713126,20.763610257234756,1.5053728123481653,5.788759811159248,1.4582578044831702
20.914867389009114,2.024754262786431,1.335075638218763,0.46508536656784266,20.016527536178476,1.7290478948140888,11.09277317345974,2.0289735757998275,20.940779011558718,1.512216699021888,5.81955627531714,1.4621127305864559
21.091419193980396,2.0313445830466756,1.3496380787303397,0.46469085773114566,20.202418271828655,1.7254018257580008,11.095928306795692,2.029256807479664,21.117117656212677,1.5180159293288922,5.850307458335803,1.4660439418958233
21.265106242617275,2.0381019822605793,1.3642866243564178,0.4681409030896842,20.3873131480385,1.7376215020084642,11.099143194838971,2.0306013917089385,21.29121148410284,1.528418936226669,5.880974190999156,1.4707262284694895
21.43511507190658,2.0448908165902835,1.3790631036195231,0.4717060280640312,20.571187884546358,1.748842089588245,11.102414745591023,2.0263427805715186,21.46205347443083,1.524897181104533,5.911524969900218,1.4713058217576773
21.60470150789755,2.050083204796596,1.3935526889462775,0.46984413229665845,20.750158469573762,1.7416944985485299,11.10574690356611,2.028926470551786,21.63163764972873,1.5444328493071737,5.942013388715514,1.4768486337836373
21.772085749970007,2.055230177181925,1.4085483909752186,0.47426119801145805,20.93209814543366,1.7544864057055047,11.109150274858411,2.0345232850161974,21.799297238769732,1.5521378749911388,5.972578922394385,1.484538670469787
21.937103815421775,2.0608439468220516,1.4235193041165597,0.4765297285044335,21.111586996732154,1.760814087744997,11.112605266961246,2.0376666981355585,21.96470737817126,1.5631493694044984,6.0029688465511475,1.4904632055569593
22.10903824632469,2.066254001601183,1.4385832308847424,0.48032655956986026,21.29056758235294,1.7730784938040571,11.116116769484277,2.028498842796691,22.134224172799243,1.5429637646228676,6.033255782944415,1.4873078339691626
22.27526496858598,2.07046195650378,1.453439574772921,0.4826007576284263,21.46566405311231,1.781519572646162,11.119700689692518,2.0300300213756297,22.30112351930184,1.560493493509779,6.063585755315468,1.4919810968092901
