coupler,coupler,$D^a [mM]$,$D^a [mM]$,$I_{islet}^a\ [pg/islet]$,$I_{islet}^a\ [pg/islet]$,$\gamma^b$,$\gamma^b$,$I_{cell}^b [pg/islet]$,$I_{cell}^b [pg/islet]$,$G^b [mM]$,$G^b [mM]$
2.697190237404954,1.069479034118772,0.5037721948700775,0.22104393096699382,2.5992430596759473,0.4419928051840369,11.000306317117172,3.468550558597737,2.0093263564342245,1.468540846124017,3.20602389457903,1.869253017833322
2.978122330568984,0.9641818369477972,0.5075630838052265,0.2753636342111201,2.933707657095964,0.5210684162178747,11.00314610720207,2.6142890504313043,2.531459200376261,0.7914596860613198,3.239038493420634,1.4102722699535877
3.2581651788234245,0.9249542834003429,0.5113124913148683,0.2851549603938539,3.2240128789456897,0.5522841235583011,11.005142702788286,2.3001860695394143,3.0405304164827966,0.633491199352059,3.2759294488859823,1.2445016811985625
3.537609167024913,0.9138620020257574,0.5154488900020214,0.2864647908893124,3.50561559069751,0.5766912844622358,11.006271034075025,2.1624915139086456,3.452338162477131,0.635811156605939,3.3129156034358345,1.1748476660595866
3.8148712755458853,0.9186716412680782,0.5200724005091975,0.2877717525290908,3.783876848116867,0.6012411868044972,11.006987355329136,2.0870946956430707,3.799440046415895,0.6629682814534641,3.3496389613722037,1.1393124048772676
4.090658007432244,0.932150465100505,0.5251266185909844,0.28986401251619504,4.060125464251307,0.6275386627085804,11.007489531988588,2.0518602284250735,4.111234487270068,0.6979937451685122,3.3862589441257804,1.125824629883191
4.365283282121017,0.9524422775251732,0.5306644843538855,0.2915340043441196,4.335248571055007,0.6472169993229576,11.007869617741434,2.036663523307166,4.404082321573416,0.7287309505997116,3.422828543516493,1.1233595247342278
4.639538895448368,0.9747338516931332,0.536572831600456,0.2939654190012498,4.609694767275634,0.6720977077343436,11.008196902939451,2.0274266555691534,4.686953003073102,0.7550529896665437,3.4592167725791483,1.1242098104310796
4.912608599298351,0.9983493853184019,0.5427657365342455,0.29705418900670744,4.882778784819529,0.6996992669662415,11.008480370263813,2.029321875754153,4.964301329518513,0.784922417170911,3.495548729137979,1.1312391437446427
5.182971870318628,1.022984890238555,0.5492586784048993,0.29763273118763484,5.153528372403776,0.715064948947792,11.008763073910378,2.0210953407746044,5.237171457307613,0.8034987472181531,3.531534543382354,1.132604125317807
5.453130478066132,1.0493306588478628,0.5560915385442716,0.29894647930749524,5.423893648617014,0.7334417781903587,11.00901711533962,2.021187082974969,5.508120902463202,0.826791461908476,3.567541018604688,1.1385352607866723
5.7229824220054955,1.0762820866102332,0.5632041663495491,0.29982050014950046,5.693765518395556,0.7498051279813029,11.009249685798356,2.027080655256273,5.777882184007561,0.8506106095742861,3.6035819316870543,1.1476890657049579
5.990378030111626,1.1015889433857622,0.5705929197747122,0.2997912069855094,5.961666888589197,0.7620651405761463,11.00950366538246,2.0210493495308723,6.045490015864304,0.8661128497366198,3.639275706626807,1.1500960014625599
6.2575330593367,1.1271211288265457,0.5782906031278612,0.3033973441232114,6.229057200505381,0.7879166264598997,11.009755935079568,2.0205344896741675,6.312189373990005,0.8885169981138537,3.6748962095121245,1.1555833740394656
6.522738678374352,1.1523730697783194,0.5861691678890285,0.3055223561002714,6.49445423855469,0.8056628991881498,11.010004263998722,2.0249172066124497,6.577413717014182,0.9123934903318507,3.710477724419778,1.163825612496902
6.787093213018472,1.1761151084162633,0.5942171233647824,0.30628062809346646,6.758842178133409,0.8191624083459952,11.010272255326031,2.025535045326998,6.841256525466416,0.933980862118145,3.745802364670576,1.1699085853341487
7.049228055226499,1.1989871233328748,0.6026279242251188,0.30958163646393455,7.021710087400468,0.8386961139735025,11.010552391944984,2.0197794443377663,7.103403218382159,0.9472149533961087,3.780953976811291,1.1722091939685846
7.311808454556297,1.2227120404904899,0.6111877277224763,0.3134670298431978,7.284161830795525,0.8623967976574889,11.010827500536907,2.0215090900190784,7.36525011649648,0.9651140238184233,3.816223328377031,1.17874620869121
7.57397297207212,1.2459902589886058,0.620013664402863,0.31472940651128845,7.54637420204864,0.8700794053248572,11.011116555010204,2.023959080167796,7.6265415779387515,0.9832625846276264,3.8514396111741673,1.1856893910693913
7.833435599231436,1.2682119162729395,0.6290108637729931,0.31637916990920034,7.80648088276709,0.8852486544757144,11.011438305744587,2.0168474684314885,7.8860118597115605,0.9950807727215707,3.8863630906166104,1.1870182946188148
8.090047087705214,1.2891075605802456,0.6382167584980829,0.3174270223504065,8.063833321067822,0.8955343782278412,11.011764687408846,2.0150777726744526,8.143533446382378,1.009792271120706,3.9213590579105913,1.191380200457706
8.346079863831552,1.3101550883640556,0.6476433639100663,0.3181728087187704,8.320196069627649,0.9041928846242301,11.012110408533854,2.013403274128004,8.399626690632038,1.0241655638179552,3.9562980279522617,1.1957591259644338
8.599368043248644,1.3306418390204118,0.6573580489529468,0.3220331201674484,8.574341761816855,0.9247070019765945,11.012483512799045,2.013414975462502,8.65356140247699,1.0441270606065651,3.991077038500158,1.2011495745157792
8.854484495286785,1.3507534710977929,0.6672554108073581,0.3253180991182274,8.829143482011515,0.9401112921704232,11.012876788593031,2.0198974095977396,8.907301879372303,1.0689018973615945,4.0258193882002145,1.2103852316070773
9.107305314889055,1.3704966354974204,0.6772779534926203,0.32707981138462233,9.082312929889525,0.9507066793207736,11.013298460464073,2.0202649819090444,9.159693483040607,1.0830283966655132,4.060398368531326,1.2159181272561628
9.358443275790757,1.390145713225261,0.6874142777916573,0.3294986707828621,9.333805391973529,0.966618378147473,11.013737704650199,2.0191837934160795,9.410885461999891,1.0909000080306321,4.095034993398217,1.2204722362198002
9.606907290670243,1.4089942986570945,0.6976447095715904,0.33262945078929645,9.582760601176904,0.9849128780493668,11.014207120021295,2.019873757410009,9.660113271896178,1.106201608958176,4.1295992798893675,1.2260993729159502
9.854020999037166,1.427616451033727,0.7080163785027574,0.3340054049705286,9.83016440001775,0.9921594022316363,11.014721242222581,2.018932209365528,9.907344285068401,1.128386240219132,4.163826782830205,1.2307948857072104
10.100296743034173,1.4448638912822214,0.7185914276559087,0.33740398613278355,10.076773011071621,1.0092981187302021,11.015256226531664,2.017113573926789,10.153358736043655,1.1388677355668644,4.198076762950437,1.234819642222699
10.347034359572051,1.4632221419333682,0.7292833603722966,0.34028966424654233,10.32334905139419,1.0228855317549197,11.015821060411058,2.021011459341624,10.39907984401778,1.1583023749982029,4.232312479183972,1.2423251761941916
10.590929345698028,1.480492355157621,0.7401016497031208,0.3424475079416955,10.567787154145773,1.033311978069625,11.016417627410902,2.018153036879237,10.643156094670163,1.163648565506393,4.266488744410308,1.2456040471816383
10.83061264622556,1.4969971823741024,0.7510619750519647,0.34421772181217436,10.808534144667483,1.0422386566822472,11.017049188847606,2.0166651822776482,10.884468389150221,1.1759919178814608,4.300594988277446,1.2497097435837068
11.073417028429088,1.5143555051904416,0.7622050539115449,0.347278567531379,11.050887214192898,1.0562817722421618,11.017724047014788,2.01376155566809,11.125658042850212,1.191463509328685,4.334496749905554,1.2529411086077753
11.311365407007502,1.5307647171670113,0.773332339785232,0.3503342878080239,11.289584415024617,1.0735452247484256,11.018429390633125,2.0132293779693655,11.364574918433119,1.204516221382102,4.368402194722378,1.2575668163983118
11.551107817130568,1.5473372264681666,0.7846969409953389,0.35263043816839046,11.529107697924925,1.07986305219753,11.019169405579046,2.0196099716703864,11.60323741069198,1.2254685761459638,4.4023261974029815,1.266499557391108
11.790535429276034,1.5641119621692288,0.7962754665106507,0.3560941424643376,11.768691923697169,1.0931696406762692,11.019945442536493,2.024388301763625,11.841564870918695,1.237081873001417,4.436266309951579,1.27439019089332
12.025394070161031,1.5789705056438754,0.8077935901285143,0.3580348711682628,12.004357719139515,1.1047568342543421,11.020768986197721,2.0201553617772428,12.077383394766441,1.2433913698685342,4.469959994332487,1.2766146826059672
12.261429209760461,1.5949588814138478,0.8195254487952623,0.36024100233421846,12.240332166826798,1.1122894308029059,11.021629979376574,2.0222848489260854,12.312731768331822,1.2584346089416738,4.503705770882157,1.2828105485526304
12.493769282031291,1.6087669374816334,0.8312896901829663,0.36325564203905525,12.473384395329175,1.1279661210250183,11.0225363557301,2.0204592220290807,12.54578978827729,1.270079526190716,4.537268427396418,1.2864925512239174
12.726567446764536,1.623928966097898,0.8432682417733296,0.36946153937446086,12.706250961329483,1.1524173458424338,11.023484540954989,2.0133193939177394,12.778008023740297,1.2709481427196254,4.570776415940566,1.2866960988133167
12.956315575541433,1.6377608088713052,0.8551531554873513,0.36884921015430344,12.936366348182448,1.146875419605449,11.02447550042555,2.019249674880307,13.00843688276762,1.2977082375017523,4.604272584141793,1.2952752842140425
13.186734573900273,1.6514823100180422,0.867197975773602,0.3712982024348461,13.166817208056703,1.1602348436340624,11.025509048843201,2.0199068299437446,13.23803242168111,1.3055346560375687,4.637718661033776,1.3004122226631085
13.413772989427345,1.6644913852131946,0.8794687816415614,0.3763255138790397,13.394676338938487,1.179086990379187,11.02659005300444,2.0189718338442963,13.465652660089514,1.317141940427445,4.67101522877774,1.3045210992900116
13.641254686240755,1.6785189780218248,0.8917089579770098,0.37746740824177505,13.622007517352378,1.1814131355476942,11.027718518952002,2.014137276679805,13.692406569344739,1.324977675751583,4.704151720197013,1.3060682385167752
13.866902371791467,1.6923585081517176,0.9041334429460687,0.3802295513058952,13.848130076215881,1.1920379728496886,11.02889127968552,2.0129451723461,13.917985110849239,1.336106328730847,4.737298468648573,1.3099100604261806
14.090072372538062,1.7043102692613514,0.9165988857503766,0.38230360961305665,14.07185036425923,1.2004109721840914,11.030109672689024,2.0159336161405186,14.141753408408896,1.3503261439033047,4.770466102836968,1.3164396556909963
14.3172807657342,1.7176716911313485,0.9291386275609954,0.3841331126880451,14.29815775370169,1.2076400283184145,11.031378411138078,2.0194640714007845,14.366439042568484,1.365938487716983,4.803544392648838,1.3233310812435812
14.53940927983187,1.7298230552792975,0.9417922388898498,0.38648417830617104,14.521213502586445,1.2167040062129106,11.03269505899819,2.020058487984704,14.589211563097388,1.3709046524054698,4.836624518737157,1.3282413944084714
14.758809664293983,1.7412058815665774,0.9545792060365592,0.391284828234581,14.74143661699731,1.2359845933362028,11.034064027269558,2.016340554233209,14.809587298662104,1.378927326453833,4.869491829689271,1.3303257123931613
14.979261268907923,1.7538151364245005,0.9672651820259611,0.39353431532547367,14.961514422821821,1.2449969274480315,11.035482161180225,2.0177947070030346,15.029426859269629,1.389258312271553,4.902455422484997,1.3357526425886874
15.198029367650703,1.7650141667314947,0.9802383699190699,0.39601509278139974,15.180731652329783,1.2484553908720266,11.036953235812085,2.017039983485391,15.247952537493488,1.4018510465175442,4.935230687254184,1.3397353294762107
15.414034901650444,1.7768063193464536,0.9931745108148683,0.3973432101241387,15.397354126356465,1.2546257291093432,11.038474945981793,2.01949252799432,15.464491592016095,1.4206383825624236,4.967891768637305,1.3458395183854939
15.6254078397481,1.7876798658254696,1.0063177335417213,0.3994521035068545,15.609990011983271,1.2597270586357918,11.040045842477584,2.018238235001859,15.67772925595327,1.428747433538443,5.000438697600094,1.3494199439651087
15.840984316161357,1.7999044615676107,1.019603434979624,0.40330184880958553,15.824907739810676,1.2734040117545853,11.041669737111999,2.0268734920061466,15.891585633707841,1.446693277602744,5.033143110199395,1.3595680205501095
16.050167271485204,1.8099503933908831,1.0329428244821452,0.40633014714743193,16.035305926593065,1.2825557692378329,11.043346205782486,2.0179338255312875,16.1023431163069,1.4350468772746308,5.06563247964943,1.3578821215955126
16.261506378653568,1.8209376412104281,1.0462066200162896,0.41050593291046983,16.246210924004643,1.3021588408558626,11.045078785855496,2.023570021860302,16.31286515807834,1.4616744812613331,5.0981098180426425,1.366037322225546
16.470372184547863,1.8316023331807039,1.0594435828726545,0.41346833913191183,16.45529647482163,1.3127018864551123,11.046864117613817,2.0222330325659903,16.521761869590193,1.4646711271004236,5.13051090723516,1.3694264489375578
16.673780738761852,1.8401273910573175,1.072925779958981,0.4140706843670327,16.660114452423038,1.3056430456941563,11.048703313946342,2.0202060937369306,16.727338998974457,1.4715250941785296,5.162818352197162,1.3723246525525117
16.881873345949703,1.84974631322034,1.0863391208974638,0.4154328590179984,16.867348714240407,1.3148408707857704,11.050598574442537,2.01754852509885,16.933478701838087,1.47579670796605,5.195103083761752,1.3747441085233627
17.0895751341079,1.8602791965171146,1.0998937931835948,0.41732710913890464,17.07487969058168,1.3198447893616392,11.052550256479346,2.0180637491053384,17.139690702989604,1.4900497994964845,5.227302171143785,1.379324448761399
17.294903166625083,1.8705244211065026,1.1136527265664466,0.42248768854995744,17.2807881666736,1.3378459663387283,11.054559098997546,2.0274815543625,17.344795486202745,1.5156439492171738,5.259504642603415,1.3899954915786783
17.497149107106047,1.8790639788305281,1.127265995192594,0.4238931453984382,17.4835816473545,1.3415987423619073,11.056622272780874,2.0222186676721496,17.547702168820017,1.5059155358583955,5.291588386524464,1.3905279479474515
17.692605052218543,1.886679232613724,1.1409518064804136,0.42689003143785315,17.68068086071988,1.353284608856182,11.058745130854362,2.02601344273205,17.746515347501948,1.5211099000527513,5.323702702928466,1.3972851938446604
17.89061797319062,1.8944660969433118,1.154849636331082,0.42694399567026503,17.878514961479723,1.343522241694736,11.0609231850676,2.028942835258378,17.944162146007393,1.53579022100759,5.35567398480806,1.4034618912633716
18.08978662676416,1.9030592928752426,1.1689010211383197,0.4314032311248004,18.077489779512852,1.3617721420129207,11.063161884259271,2.0264040959212704,18.141919106243936,1.5293200086363359,5.387707073736757,1.4057641598166228
18.29296006770329,1.913590678205438,1.1830299341833548,0.4374067074395308,18.27957532314977,1.3824149572731592,11.065457836217364,2.023679073891321,18.341616251076125,1.5396992310187165,5.419546959095219,1.4079707069719263
18.496446086145603,1.9241420335202388,1.1969112006834712,0.4360347516103364,18.48234665381805,1.3736675116719117,11.067817270046866,2.027560701490718,18.542518289036245,1.5552217602947767,5.451439388865133,1.414735600354246
18.691270318910842,1.9321719868292093,1.210919327919649,0.4352346905283783,18.679049877164985,1.369658241828171,11.07023224463221,2.028746086413231,18.739681687676907,1.567346823642386,5.483156416099278,1.41962502121468
18.88430035487212,1.939978399642743,1.2251776235126899,0.44197680213311186,18.87303403294383,1.397818355013081,11.072700556421484,2.0253084034454605,18.934048572526496,1.5738398976487473,5.514679844863808,1.4212509146268277
19.07702691058761,1.948248309677345,1.2393478753949698,0.4446095338017823,19.065762736508947,1.4024537180722112,11.075227368812886,2.022467467412885,19.126947008273483,1.5801242086059353,5.546147811010247,1.4232344243791286
19.266112006356682,1.9555745986163582,1.2536364844714334,0.4452949413913153,19.255701977722357,1.3983883259246201,11.077817868976837,2.023678832918183,19.317406443469185,1.588575448580085,5.577662061688097,1.4280159695729098
19.456600210170876,1.9642221221993197,1.2680276303307751,0.4515862500964266,19.44608228041101,1.4253119897982058,11.080469165089822,2.0246733592510133,19.507211971393765,1.5964168390671374,5.609120870593313,1.4326302293887745
19.64057934516116,1.9719067209058552,1.2823561261577552,0.4531759657730667,19.631284169719894,1.4247060815036685,11.083182258414174,2.0277228119840864,19.6935570557184,1.6070758968221326,5.640550992241702,1.438685242959472
19.825988903685502,1.9797664711780556,1.296851758331077,0.4540874355972782,19.81670991468968,1.42165056757487,11.085955912568718,2.02549175708423,19.878773326733384,1.6051913632139216,5.671922474814873,1.4409556467661497
20.00977556681294,1.987754278530794,1.3113637142419334,0.45782237505248596,20.000817190140374,1.4378866232240894,11.088788653994008,2.0260431590551695,20.062653113476422,1.6174963362674308,5.703190955016922,1.4452141008314676
20.190905262292937,1.994747674087507,1.32598567730653,0.46098314716798816,20.18254786253279,1.4439344682315782,11.09168895175715,2.0303114582186463,20.244592597603106,1.6270660496868872,5.7345291225329955,1.452081683084241
20.375102623452104,2.0038070205511542,1.3406131299216513,0.4616982904950016,20.36608464705115,1.441692490802008,11.094642261272611,2.030415599813705,20.4268567664042,1.636614545221374,5.765658196257259,1.455994688528063
20.55916433137654,2.011216096875217,1.3553566186615063,0.4632324662870014,20.550030808104847,1.4445335529247547,11.097651491959555,2.0216495374176766,20.609252954663514,1.6287156491750805,5.7966474827209895,1.4534806166736687
20.73830601938004,2.017526263951703,1.3702149965395032,0.4666620860336356,20.730261432377528,1.4552308034187205,11.100733295447014,2.0270160935770005,20.789587615898178,1.6490582357581434,5.82774280457089,1.46110151732
20.91486738900906,2.024754262786431,1.3848854621416191,0.46999968643248735,20.907396311002657,1.4708527634224853,11.103864839777104,2.028785296803665,20.967250404840893,1.6640255014555334,5.858602349234786,1.4661524353135404
21.09141919398047,2.0313445830466756,1.3997192874515236,0.47205245277245944,21.08403094844651,1.470316301488419,11.107054718456595,2.0299403526833055,21.143656421052228,1.6735455526718934,5.889379495651458,1.4707199862727405
21.265106242617303,2.0381019822605793,1.414661745727694,0.4782449225218644,21.258419654135388,1.4930787456633174,11.110312712956013,2.032593306781494,21.318151462280614,1.6787659700950741,5.920201211899305,1.4763196425192724
21.435115071906626,2.0448908165902835,1.4295769412662116,0.47865028233683854,21.42926314671998,1.4848827946888312,11.113634732025801,2.031465568242381,21.489863126684664,1.6759359477688622,5.950992308661362,1.479140264585821
21.604701507897545,2.050083204796596,1.4444503329012384,0.47893866144602126,21.59906861104805,1.4860593924447478,11.117010363957819,2.0247838189090945,21.659870802421224,1.67289866796519,5.981612330803121,1.4779052302068334
21.772085749970024,2.055230177181925,1.4593869527493395,0.4803302981485771,21.766931339582577,1.4899750505121767,11.12045791840965,2.028542515545815,21.8280680308306,1.6889683348330151,6.012304579023954,1.4842657304188291
21.937103815421803,2.0608439468220516,1.4746030276813349,0.4881394148567484,21.932683763002018,1.5163986320311091,11.12396736036368,2.0266408642968217,21.994034565012626,1.6858081547320956,6.0429456572907725,1.486446753588468
22.10903824632468,2.066254001601183,1.4895739564563641,0.4872811176125698,22.10286323849673,1.505401740664712,11.127535499663574,2.028670417834884,22.162252875596323,1.7006758280320735,6.073484816033428,1.4915307864037683
22.27526496858594,2.07046195650378,1.504834018119965,0.49359969919319086,22.27016228502087,1.527926427640255,11.131156013251461,2.0263831407111,22.32874417401153,1.706001584941751,6.103859254316774,1.4934196069832
