coupler,coupler,$D^a [mM]$,$D^a [mM]$,$I_{islet}^a\ [pg/islet]$,$I_{islet}^a\ [pg/islet]$,$\gamma^b$,$\gamma^b$,$I_{cell}^b [pg/islet]$,$I_{cell}^b [pg/islet]$,$G^b [mM]$,$G^b [mM]$
2.6971902374048526,1.069479034118772,0.5037711686182735,0.2238382731525524,2.2072749434521906,0.4480105670781834,11.000473694521233,3.4434739518815247,2.0595835691619393,1.4062025952222343,3.206428672545632,1.8557709086372693
2.9781223305689792,0.9641818369477972,0.5062594813007,0.2738939332867065,2.31582664214125,0.5690064762787392,11.001996596272402,2.623876884359719,2.836539781536519,0.5352498094437222,3.235801811249123,1.4156347092135313
3.258165178823425,0.9249542834003429,0.5084883535638287,0.2839254934496243,2.402329336137894,0.604569592216785,11.002272572146158,2.3087841504883255,3.2433383301941214,0.5412998685750148,3.2672703894298625,1.2490913154333119
3.5376091670249052,0.9138620020257574,0.5108071079120461,0.2856779346002006,2.483991345611975,0.6190745754379656,11.00228592635235,2.171745724716029,3.548504034740252,0.5834956845999051,3.300634723014117,1.1792925635059714
3.8148712755458765,0.9186716412680782,0.5133346799913074,0.28720867459010757,2.565880484307104,0.6317087926442573,11.00223826458977,2.097955924648957,3.8310569387789126,0.605799432418504,3.334880256382083,1.1441401786720198
4.0906580074322285,0.932150465100505,0.5160219797523259,0.2882380970322711,2.646738835458199,0.6428855204729297,11.00217327594355,2.0579061380090233,4.107904539548321,0.6295125867891648,3.369532767605871,1.1275984273635047
4.365283282121001,0.9524422775251732,0.5189196658777616,0.2888752188782291,2.728301895779799,0.6527403051107045,11.00210549589861,2.037805699928996,4.382656883174899,0.6556349850986315,3.4043214205112613,1.1221311735529513
4.639538895448359,0.9747338516931332,0.5219600616780646,0.2877529886697636,2.808814304449895,0.6583801042167835,11.002020756347,2.0360194639530786,4.656711325003094,0.6826551129107461,3.439378602389513,1.1267918212176866
4.912608599298347,0.9983493853184019,0.5252269216377189,0.2922009556816357,2.890575914598741,0.6764654590117926,11.001953574329269,2.0244597789438084,4.929640494810325,0.6942055344122546,3.4742482552145684,1.1260719602495484
5.182971870318621,1.022984890238555,0.5286398314143513,0.29119950115196436,2.971774696771119,0.6817772228270542,11.00188573329814,2.0237324265526295,5.200251462630082,0.7192185302247234,3.509183246988789,1.1313749179507315
5.453130478066129,1.0493306588478628,0.5322232289512882,0.29225447081778416,3.0529918663899696,0.6916298258202515,11.001821642459769,2.0233071383159866,5.47018998983455,0.7359534610871827,3.544145178671411,1.1368071555705697
5.722982422005493,1.0762820866102332,0.535980122828938,0.2930621685526997,3.1344238856618234,0.7006379642033296,11.001786720114612,2.013438920841898,5.739735182041002,0.7486032391575642,3.578813615723994,1.1369342282415935
5.990378030111626,1.1015889433857622,0.5398092079866834,0.2939164340298265,3.2140302684656876,0.7095997535045941,11.001751201675207,2.0191177638279534,6.007292387264735,0.7778434204988017,3.613604732835066,1.1458007971262663
6.257533059336702,1.1271211288265457,0.5438408220156816,0.2954136423651166,3.2946582907283726,0.7197065893964133,11.001732136748887,2.0211737759606674,6.274195546325991,0.7942892046753548,3.648294624422448,1.1525868033149218
6.522738678374352,1.1523730697783194,0.5479789808974657,0.29457143559775,3.3744618508309223,0.7239476115079192,11.001740997323193,2.0140575059547237,6.539427642965475,0.8052858924193629,3.68273171079921,1.1541050134565092
6.78709321301847,1.1761151084162633,0.5523385880013751,0.2972020704440302,3.455659425174839,0.7364552182454012,11.001746242126426,2.022845210473045,6.8037062720885455,0.8306241769637458,3.7174480762632496,1.164652809171992
7.04922805522649,1.1989871233328748,0.5568038162965715,0.29820887719953104,3.5361667740488643,0.7448698653419978,11.00178383948283,2.0223513972146248,7.0659398357608305,0.8434940792082727,3.751915460601643,1.169885942668906
7.3118084545563065,1.2227120404904899,0.5614178338837765,0.30003250854451574,3.6168082332210005,0.7551134425066033,11.001852037246852,2.0180858881369703,7.328139840047433,0.858698569040582,3.786167080892398,1.1729153910372823
7.5739729720721245,1.2459902589886058,0.5661124433345166,0.30108486909208737,3.69648197248981,0.7632609911611855,11.001932374480198,2.0197069960592806,7.59002803450424,0.8757465909564098,3.820521874848873,1.1792683221393259
7.8334355992314615,1.2682119162729395,0.5710092779083965,0.30340129145809397,3.7772926496485053,0.774363968264547,11.002037135514424,2.0220316875793816,7.849682274030115,0.8927844279248509,3.8548190654756116,1.1860184810642576
8.090047087705225,1.2891075605802456,0.575923555864581,0.3039372055134551,3.856261865485929,0.7808560202404142,11.002173220401781,2.018733953450867,8.106598765988315,0.9039260022677218,3.8889431061773343,1.1894437445115429
8.346079863831564,1.3101550883640556,0.58102548114292,0.30462378262680573,3.936181776151944,0.7874161163789886,11.002332577416524,2.016426802354659,8.362525478319911,0.9160126704499373,3.9230725192637435,1.1933765182813825
8.599368043248642,1.3306418390204118,0.5861973933021393,0.3072102760123029,4.015242928753052,0.7988153436525789,11.0025138825088,2.019079472324773,8.616069345714237,0.9321369054860834,3.957277609259565,1.200200698687321
8.85448449528676,1.3507534710977929,0.5914937473370703,0.3079415035668135,4.094358330167358,0.8051777448731675,11.002735441260194,2.017746296858593,8.870546581010773,0.9475255937649473,3.9912468658560867,1.2046875263968595
9.107305314889032,1.3704966354974204,0.5968932323229728,0.3086619890738171,4.173228385205912,0.8113551883907436,11.00297931779817,2.0238066036792475,9.123419575070706,0.9672137261604955,4.025311875460731,1.2135348136475241
9.358443275790759,1.390145713225261,0.6024773070084413,0.31037230588391007,4.253058110752116,0.8199602780173253,11.003254292236583,2.0248015493630365,9.37460869893837,0.9741532740202455,4.059344965252831,1.2193016364869984
9.60690729067025,1.4089942986570945,0.608181445469748,0.3142573736090187,4.33292841193219,0.834267135828979,11.003567259761015,2.022909626605528,9.623335759288272,0.98554168971304,4.093243700774599,1.2233277912726594
9.854020999037173,1.427616451033727,0.6138646935958864,0.3135264741089686,4.410943584172238,0.8361997882857538,11.003916953626588,2.0193585219061876,9.87047717110547,0.9967194727100488,4.127028772451246,1.2263149684597474
10.100296743034137,1.4448638912822214,0.6197056982253153,0.3142942564244216,4.489584967637927,0.841875740992754,11.004306442024946,2.0193893891916868,10.116620384090586,1.0191241106289097,4.160627714877386,1.2314882671686593
10.347034359572064,1.4632221419333682,0.6257564733329747,0.31529614480908535,4.569551129598587,0.8480363045092536,11.004718787034752,2.022190727015177,10.36295355766506,1.0254637745096815,4.194450057554238,1.2382071475221612
10.590929345698036,1.480492355157621,0.6318200947966645,0.31790944551909334,4.648241596890755,0.8585077897625484,11.005179135201443,2.018754886785209,10.60703875919059,1.0374345066743809,4.2279786849604175,1.2411536819100455
10.830612646225532,1.4969971823741024,0.6380445196923693,0.3204580117765692,4.72763214091074,0.8686379898388601,11.005667467834686,2.0194687940694456,10.847346510556804,1.0447036093619368,4.261697652041241,1.2465342908430979
11.073417028429072,1.5143555051904416,0.6442662462903359,0.320422787096084,4.805659764622131,0.8716773565261283,11.006200751510796,2.018493285184159,11.089349351363119,1.057150893967923,4.295276904965131,1.2508963738189172
11.3113654070075,1.5307647171670113,0.6506109525176262,0.31789535717830175,4.883933311273833,0.867710868537986,11.006778735868474,2.01750472718738,11.327811020050802,1.0747791214233666,4.328646924938559,1.2552655128519772
11.551107817130587,1.5473372264681666,0.657240047665955,0.32418326871756037,4.964406284546963,0.8877135457028479,11.007393285730192,2.016969290653617,11.56699792993483,1.0830695952268954,4.3620451071010935,1.2598257038781262
11.790535429276002,1.5641119621692288,0.6638520519927247,0.3271481499640725,5.04345405925734,0.8986359558015559,11.008049756278476,2.023893224154303,11.806091368229973,1.1076803073774568,4.395402004908895,1.2690644908770585
12.02539407016102,1.5789705056438754,0.6704071130256221,0.32825651223544916,5.120650791262105,0.904339372919622,11.00875565898167,2.0122487632644375,12.04146769974299,1.102171553973071,4.4283638238496525,1.2666173008005401
12.261429209760447,1.5949588814138478,0.6771899470574094,0.3280629853321746,5.199386028719513,0.9062468896919402,11.00949544016575,2.012690547913711,12.277133702906884,1.1143709022574764,4.461607176870528,1.2716387352774166
12.493769282031337,1.6087669374816334,0.6839478801922165,0.3293280549849173,5.2767109275874935,0.9121377866040146,11.01028452686546,2.0096720589087855,12.509840812480732,1.126102042923429,4.49462779281314,1.2744991754462638
12.72656744676456,1.623928966097898,0.6908659538036601,0.331894312278192,5.354792404111978,0.9214924484231009,11.011113764605131,2.013821183537299,12.742348676930323,1.1393922070793685,4.5278083877035815,1.281833783475487
12.956315575541403,1.6377608088713052,0.6979137196012172,0.3351039612932497,5.433283435570934,0.9325721996211735,11.011990757225183,2.015702977587058,12.972363715504484,1.1491064580848167,4.560901540151822,1.287732276916503
13.186734573900265,1.6514823100180422,0.7049565260584317,0.3376360508525775,5.510698660688157,0.9417142831461941,11.01291676126755,2.0139841542663257,13.202404918664492,1.1573388255425,4.593848534522904,1.2913233534064363
13.413772989427375,1.6644913852131946,0.7120972751605541,0.337853846599307,5.588202380561414,0.944276500998282,11.01389179677489,2.0138587913512485,13.429752321645116,1.1769397792153167,4.626584900573041,1.2959503400896843
13.641254686240725,1.6785189780218248,0.7193716531187524,0.33997382767067374,5.6661730720976795,0.9520676135991867,11.014911017409531,2.0126339418643644,13.65691525280286,1.179868019535835,4.659370589839649,1.299761828101862
13.86690237179142,1.6923585081517176,0.7267419855585767,0.34194795028108954,5.744214846829672,0.9593804772785635,11.015977421953155,2.016303627393917,13.8826146678512,1.188822131621008,4.692308562149328,1.30667849371863
14.090072372538035,1.7043102692613514,0.734174116200017,0.3438745071975573,5.821974288971768,0.9664870838185319,11.017095571953883,2.0148542581689854,14.106016159655384,1.1890951452704472,4.725203107036105,1.3102634665895947
14.317280765734226,1.7176716911313485,0.7415878314856124,0.3447413283590818,5.898637298480673,0.9705329444152045,11.018267787612428,2.0166853367181186,14.332162906837125,1.2111641193849634,4.757908691686825,1.316043879835135
14.53940927983187,1.7298230552792975,0.749133989911815,0.3472596368577888,5.975790574580624,0.9791257942032036,11.019489911259258,2.020649821669023,14.554810254374669,1.2239117721795665,4.7906139539933115,1.3231746649441865
14.758809664293972,1.7412058815665774,0.7567345243919509,0.34861273988971136,6.0526429374020925,0.984367061537316,11.020763469765695,2.020439627245966,14.77457414150279,1.2313679900000327,4.8231699076084285,1.3275580134541645
14.979261268907974,1.7538151364245005,0.7643993831204229,0.34989018804777156,6.12930501820541,0.989316895974936,11.022088575230805,2.023552640230352,14.994601306470459,1.2486905344094168,4.855648269816245,1.3341143600718497
15.198029367650726,1.7650141667314947,0.7722021664450139,0.35308986429729367,6.20652063191592,0.9996308152190848,11.023465693911046,2.0167090872621003,15.213341897912507,1.2326592338925255,4.888174169815411,1.3339785391125152
15.414034901650455,1.7768063193464536,0.7800015803577974,0.3542904888830895,6.28289955752413,1.0042300259696166,11.024899191067762,2.0168354011193212,15.42965682576322,1.2469127517622638,4.920737309662059,1.33845060338777
15.625407839748057,1.7876798658254696,0.787911368329785,0.3528711856853871,6.359570755987758,1.0013093224139626,11.026387528202342,2.0235531242396454,15.641737452595816,1.27283321458533,4.953200095779365,1.3473490997090416
15.840984316161371,1.7999044615676107,0.7959845157831971,0.35672994376148237,6.437030488914531,1.0133053404236017,11.027927855733566,2.025906872909253,15.856286657905954,1.2846386206386669,4.985455874053305,1.3533477743935596
16.050167271485233,1.8099503933908831,0.8040983357747673,0.3595896516363965,6.514114933310412,1.022417444662165,11.029519796102818,2.019530034613496,16.066267719511263,1.2798220953985842,5.017564204309184,1.3534370098504622
16.2615063786536,1.8209376412104281,0.812301571642072,0.36090269554927906,6.591295707775147,1.0270663844819736,11.031166624499987,2.014884661770945,16.27706719563947,1.2845885748890997,5.049671236502486,1.3546153261716771
16.470372184547838,1.8316023331807039,0.8204512044229902,0.36162216037634304,6.667230754217361,1.0299678630896865,11.032870525426281,2.016346016404594,16.48605382874973,1.2989250766967662,5.081809724437015,1.3598685343046888
16.673780738761888,1.8401273910573175,0.828752511980784,0.3624044543924154,6.743861979788567,1.0329673413061726,11.03462792663178,2.0124664535910277,16.69029661905157,1.3027213820795265,5.1137647832604625,1.3615056484267687
16.881873345949757,1.84974631322034,0.8371630512743555,0.366586905289841,6.820784325215259,1.0456113167169288,11.036443462366881,2.0150495520591503,16.89734142643687,1.3152867040835559,5.145805923994251,1.3674646168313096
17.089575134107918,1.8602791965171146,0.8455092012000599,0.3655827107081846,6.896427840615665,1.043406976529167,11.03831617957134,2.0182209540361304,17.104622730814548,1.32790443034623,5.177766036076602,1.3738281047276406
17.2949031666251,1.8705244211065026,0.8542232532563419,0.36972019527107897,6.974711733496253,1.055808891004776,11.04024475334649,2.011842304703617,17.31005760385552,1.3197857505346389,5.209594802242165,1.3736371457100522
17.497149107106004,1.8790639788305281,0.86272349785493,0.37084820410723,7.050384963255489,1.0595895543588392,11.042232718654626,2.0113987950260155,17.512691219117738,1.3346494634954593,5.241401982693191,1.377478306913404
17.69260505221855,1.886679232613724,0.871380930467441,0.3723553307987011,7.126802029159712,1.0643803607874789,11.044280216938592,2.02077505068808,17.709324362140258,1.3613103164005669,5.273222281563771,1.3880556422401904
17.89061797319065,1.8944660969433118,0.8801124089920843,0.3766128263985584,7.2032155780414895,1.0769887912240768,11.046378484140991,2.0190623369336222,17.90674513417043,1.3600864010226104,5.304800112146314,1.3910047697147359
18.08978662676416,1.9030592928752426,0.8888353370272625,0.3780846694886277,7.278919694447372,1.0815828766388023,11.048537364922463,2.018840711038638,18.105299882059562,1.3635976864251909,5.336426301776608,1.3949129047391908
18.29296006770326,1.913590678205438,0.8976045288483561,0.37784338038012416,7.3543997630535625,1.0812221462583902,11.050759420650964,2.0239897310920907,18.307268789681626,1.378874205398086,5.368080791207743,1.4025257072365007
18.496446086145603,1.9241420335202388,0.9064278385435814,0.3812004593999093,7.429726337617837,1.0911104470565343,11.053035355465385,2.0260902967881442,18.510144572132454,1.3947290303118607,5.3994732260940586,1.4080681165810287
18.691270318910842,1.9321719868292093,0.9154024836437168,0.3841618425389107,7.505746335552145,1.0998192503022024,11.05536841781551,2.0219153634026497,18.70631783926721,1.3917571322274838,5.430750959237236,1.4091796177771159
18.884300354872153,1.939978399642743,0.924346345777009,0.38586017454471416,7.580904583018408,1.1048704745422675,11.057769661838806,2.0215383806630265,18.89973918603547,1.3929403165671475,5.462171640974074,1.4128543111656782
19.077026910587588,1.948248309677345,0.933285670769168,0.38726330039604234,7.655442459047971,1.1090300290998878,11.060233935648704,2.0230333699301903,19.092339552072968,1.4026648298035407,5.493558616200776,1.417841872796951
19.26611200635667,1.9555745986163582,0.9424355201807129,0.3908557407178649,7.73116465216237,1.1194149115422605,11.062758383757982,2.0308775851772554,19.28185925107047,1.428053125605715,5.52485840763996,1.4273193374090105
19.456600210170887,1.9642221221993197,0.9515111503321108,0.39209018184909117,7.805700407946785,1.1230062145540671,11.065329549725597,2.0258514389686306,19.471838118451448,1.4249830763157494,5.555840828940813,1.4277394841757887
19.640579345161164,1.9719067209058552,0.9606869199453629,0.3940023501100497,7.880503320667799,1.1284963769830199,11.067971609394482,2.025809692026573,19.656792456454145,1.4262517525311553,5.586991499831398,1.4315679903722918
19.825988903685502,1.9797664711780556,0.9698957115088439,0.39334038505058067,7.9550244567297606,1.126573770190169,11.070673217333072,2.027053452822119,19.841838685255137,1.4378787982533245,5.61805158453153,1.43631590032298
20.009775566812944,1.987754278530794,0.9791859970600467,0.393982314351592,8.02965655882278,1.1283468324801225,11.07343131923139,2.0296537400160894,20.02559766487199,1.4535436229941199,5.648977615551025,1.4420337403015093
20.19090526229291,1.994747674087507,0.9886454123609447,0.39763170262029246,8.105106012352543,1.1386943426791696,11.07625145040433,2.0222750099328883,20.20698567387604,1.4345589403278856,5.6798832649838165,1.4405651980920566
20.37510262345214,2.0038070205511542,0.9980954496534606,0.40047795947051845,8.179943260840842,1.1467015402379324,11.07913653090923,2.024120427816879,20.390365062929398,1.4553983940896387,5.7107758742113015,1.445675309973372
20.559164331376532,2.011216096875217,1.0075801305120187,0.40140789723708564,8.254530802244313,1.149185411768823,11.082082139608117,2.020942127408626,20.574000187032368,1.452569810803568,5.741582498664906,1.4471596673217426
20.73830601938002,2.017526263951703,1.0171407756018387,0.40437655213948964,8.329194360644355,1.157469631707891,11.085103179283848,2.0288211646486167,20.753807117565316,1.4726697968799736,5.772516611578359,1.4565455380016277
20.91486738900905,2.024754262786431,1.026698821623987,0.4063728230336011,8.403327230706168,1.1629336294977324,11.088173326673997,2.025432698972104,20.930731684131185,1.4686660965459446,5.803191788891212,1.4578517682058834
21.09141919398049,2.0313445830466756,1.036252537746391,0.40868327902719676,8.47692658835469,1.1692623891874785,11.091307367827447,2.0261216332911083,21.10710000988812,1.4800970226969767,5.833843500611373,1.4620632044588833
21.265106242617307,2.0381019822605793,1.0458110595358532,0.4087073116481669,8.55007630884342,1.1690192593532929,11.094505731497811,2.0217871386201827,21.281060448960933,1.4713750232681897,5.86447080916097,1.4625880334844261
21.435115071906633,2.0448908165902835,1.0556383887968377,0.41246071362192066,8.624798146735277,1.1794139675059803,11.097770217272194,2.020635198133806,21.4516178389291,1.4786285188177057,5.8950856591615794,1.465395270270152
21.604701507897545,2.050083204796596,1.0654675659865498,0.4140857684910553,8.699040743653272,1.1836815704325234,11.10109798809663,2.024610218464217,21.621131236521435,1.495799319855015,5.925659316840226,1.4719269672229254
21.772085749970028,2.055230177181925,1.075292445269073,0.4162627040594756,8.772766394638488,1.1894938189343853,11.104490352835944,2.026152869619126,21.78867416939635,1.4956087750087221,5.956215693033165,1.476657336265494
21.937103815421807,2.0608439468220516,1.0852066846483894,0.41752074124590216,8.846691294208703,1.1926530428819793,11.107929775718599,2.0233598185742663,21.95392971386533,1.5019971026713603,5.986538638384683,1.4782414639527994
22.10903824632468,2.066254001601183,1.0950925085341756,0.41988297118289514,8.91993130311417,1.1989323691007603,11.111433514998165,2.0282123749576173,22.124239953488516,1.5225862604767344,6.016851828570705,1.4853907962245438
22.275264968585937,2.07046195650378,1.1051239837997988,0.4216246408158381,8.99379427060056,1.2034156658225346,11.11500182898699,2.033014232338108,22.2910216061877,1.530203355765091,6.047133543125689,1.4924759716739027
