coupler,coupler,$D^a [mM]$,$D^a [mM]$,$I_{islet}^a\ [pg/islet]$,$I_{islet}^a\ [pg/islet]$,$\gamma^b$,$\gamma^b$,$I_{cell}^b [pg/islet]$,$I_{cell}^b [pg/islet]$,$G^b [mM]$,$G^b [mM]$
2.6971902374049357,1.069479034118772,0.5037708174114656,0.22432544755563363,2.3542001495519407,0.4487576279298783,11.000346034567725,3.5089443354481853,2.0153926251801666,1.4791522013174987,3.2062596183588106,1.8909861002839878
2.9781223305689726,0.9641818369477972,0.5067918660174995,0.27625453172904363,2.5885171565281597,0.5554406976133884,11.003035261974352,2.628617620858306,2.6291203355581203,0.7074883727494539,3.2385565556823193,1.4180838366852753
3.258165178823427,0.9249542834003429,0.5098036022950881,0.2837308075820761,2.807537534674017,0.5922195304747492,11.004428901891139,2.311778157110726,3.1333262075491755,0.5853059477182423,3.2735294814794442,1.2508346118177565
3.5376091670248857,0.9138620020257574,0.513210512640823,0.2873516596669014,3.033903564398874,0.623793632822952,11.005086141595482,2.1661508444689437,3.5108516021837097,0.6062005028529025,3.308853027790597,1.1767413821603565
3.814871275545855,0.9186716412680782,0.5170493380807965,0.28944395457668176,3.2683727172606605,0.6512380565396454,11.005447062600284,2.097609558987855,3.828911467293439,0.6414521793527541,3.3445247253026693,1.1447598990459715
4.090658007432189,0.932150465100505,0.5212903155042687,0.28904937201527914,3.5090158314443394,0.6724130053108751,11.005684952062424,2.062076744310675,4.121294498141655,0.6697077959070087,3.3803646284062667,1.130928385531805
4.365283282120957,0.9524422775251732,0.5259407530127612,0.288727265335667,3.7555062130958046,0.6933735570731848,11.00587859518815,2.0414411355213646,4.402461851907904,0.6960640363267768,3.4161384698816706,1.125376252233394
4.639538895448329,0.9747338516931332,0.5310264624094867,0.2904173315457223,4.008038353045781,0.7185502227104416,11.006028088702863,2.0331908775838263,4.678950419618757,0.7194137296830982,3.4520263077709923,1.1266264413298583
4.912608599298329,0.9983493853184019,0.5364724356377862,0.292056090752755,4.26341496495615,0.7434612867094214,11.006179822763121,2.023318620943439,4.952695037007176,0.7399363948582923,3.48768116288197,1.1270165800839163
5.182971870318584,1.022984890238555,0.542241967768426,0.2922962546467077,4.520049201341755,0.7638241991267033,11.00631398777161,2.0192092363319443,5.223857140688778,0.7613722617768454,3.5233221852333365,1.1305506627981672
5.453130478066098,1.0493306588478628,0.5484403145740092,0.2955760824458732,4.781164253212366,0.7910833767038291,11.00644602356041,2.0156457728573436,5.493786777416716,0.7809609885563608,3.5588616076511372,1.1343497775379328
5.722982422005462,1.0762820866102332,0.5549605178324715,0.2974156811676153,5.043400066288029,0.8136623323232134,11.006578809744052,2.016690128270719,5.763053280446287,0.804785812697085,3.594314560408539,1.140725119598822
5.99037803011163,1.1015889433857622,0.5616234916993554,0.2977595623995238,5.302072750895311,0.833987663234721,11.006712354306547,2.0136750827693013,6.030567661126495,0.8194089317118814,3.629683962036886,1.144719985560949
6.257533059336658,1.1271211288265457,0.5686750312288634,0.29997537716692446,5.5638568449356445,0.8561323142116496,11.006848614001228,2.016229213718638,6.297333733137822,0.8414725493756724,3.6650323956303312,1.1518566600050246
6.52273867837435,1.1523730697783194,0.576078637309769,0.3046485771311365,5.827706149688421,0.8852328915166946,11.007009197918126,2.0131069549754037,6.56243787219856,0.8597203579685947,3.700097826884004,1.1557543651970366
6.787093213018478,1.1761151084162633,0.5836520440753259,0.30457664041481614,6.089093302075252,0.8994168547613006,11.007166726340895,2.0180600459881393,6.8265661167086416,0.8821195133019857,3.7352386028259805,1.1642076095228462
7.049228055226543,1.1989871233328748,0.5915443665940185,0.30670614280872366,6.351791472453045,0.919928583445804,11.00733522978843,2.019121729869549,7.0888990566878824,0.8958869064737379,3.770321125340893,1.170363173824162
7.3118084545562585,1.2227120404904899,0.5996342738807038,0.3088575313083051,6.613139959582979,0.9407381234812373,11.007537178373465,2.016494716630626,7.350700951957534,0.9145842646408613,3.805114724262596,1.1744126155015748
7.573972972072107,1.2459902589886058,0.6080288872444776,0.31182736394219096,6.875612027322352,0.9621924483810876,11.007753311064235,2.015643879589968,7.6120977469846665,0.9321766249053278,3.8398532819781477,1.1794144123954036
7.833435599231371,1.2682119162729395,0.6165215110642498,0.3132463266100808,7.134793346425395,0.9799617662829834,11.007981981855401,2.0184210779894607,7.871782616480664,0.9509611761447876,3.87458850052511,1.1864818502751993
8.090047087705194,1.2891075605802456,0.6252327754615442,0.3144435780450125,7.39310068556336,0.9953056782145437,11.008229752219066,2.019480668365891,8.129052868391646,0.9653645142660883,3.9092599294152772,1.1924978481767903
8.346079863831529,1.3101550883640556,0.6341487980354739,0.31716912003343284,7.650710025873996,1.0157112974743179,11.00850211822053,2.019228829269239,8.385005553808952,0.9797505726565617,3.9438410363977963,1.1977118635433623
8.599368043248644,1.3306418390204118,0.643484845231646,0.3187848577223713,7.911214543562113,1.0276408023288477,11.008801482543284,2.019497871024039,8.638776630906545,0.997196723501713,3.978299799961807,1.203221336956558
8.854484495286824,1.3507534710977929,0.652894533505552,0.3214765004485136,8.168963439298759,1.0480105241395479,11.009122687115752,2.018567458898698,8.892761796757402,1.008081068018034,4.012761129181477,1.2079358228749144
9.107305314889087,1.3704966354974204,0.6625396114247398,0.3248711835164545,8.426091440847014,1.068480566121135,11.00947278521304,2.0217606840415234,9.145496834556415,1.0283889040818075,4.0471486078572685,1.2151269859339546
9.358443275790755,1.390145713225261,0.6721723197390372,0.32814119916663603,8.678584531434726,1.0908855882210016,11.009860961741587,2.016337110663455,9.396564081391205,1.0383144333454846,4.081278185186266,1.2171117805566998
9.606907290670234,1.4089942986570945,0.6819216777903313,0.32864010426231954,8.92874716299468,1.1007148132947402,11.01026314428161,2.0190491626675784,9.6456620973729,1.0522016259924447,4.115604088316739,1.2238921811994932
9.854020999037157,1.427616451033727,0.6919746246572386,0.3316627386936951,9.18050425907655,1.1180273512738519,11.010708814458916,2.0171073134781614,9.892905559409753,1.0676408888646824,4.149653108476112,1.2278962122857928
10.100296743034217,1.4448638912822214,0.7021995985176235,0.3341396723940706,9.431368651450114,1.1333365884046225,11.011174592829635,2.0225568831748117,10.139082200451544,1.0840332236329102,4.183859354237048,1.236315359024579
10.347034359572035,1.4632221419333682,0.712552682453461,0.3369842291265272,9.680924047917868,1.1506115840854212,11.011684477678134,2.023128919376274,10.38490660503866,1.09938069264335,4.217820568564956,1.241793877228073
10.590929345698017,1.480492355157621,0.7230119511738793,0.3395846097925199,9.928476236149422,1.1668237927436573,11.012227284934925,2.022110414311356,10.629000052364535,1.1099750950486833,4.25172413050395,1.2462312456502713
10.830612646225594,1.4969971823741024,0.7337016962133156,0.34038185396745246,10.1756216859304,1.1738501780980777,11.012801656890236,2.021731139242985,10.869965495440528,1.1198927653957302,4.285635488404222,1.2510006572592638
11.073417028429105,1.5143555051904416,0.7446346097569246,0.3439866470238974,10.423600267165604,1.192012864060376,11.013411150606364,2.026620004990049,11.111497692283402,1.137067552643615,4.319584906219511,1.25901878981834
11.311365407007504,1.5307647171670113,0.7556745591296813,0.3462038826071399,10.669116017454067,1.2050149235193406,11.014066463551886,2.024379528232293,11.350222645996581,1.1481380490439297,4.353272958864054,1.2626272079697232
11.551107817130546,1.5473372264681666,0.7667514878996069,0.3466471371252434,10.912011224091426,1.2121873452928063,11.014762515046474,2.022361036241457,11.588934660089848,1.1621366679504899,4.3868355236981555,1.2663349422923385
11.79053542927607,1.5641119621692288,0.7781674775248134,0.35512195557286486,11.156974729107368,1.2483523713457376,11.015496541814652,2.0163896116794264,11.827479225767522,1.1652362528907085,4.420360161109175,1.267463943309972
12.025394070161044,1.5789705056438754,0.7893392558037828,0.35461645380488965,11.394484077646327,1.251870427585636,11.016271247234885,2.0125863090355707,12.063318136935417,1.1765285084695005,4.453820186378793,1.2699139251939988
12.261429209760477,1.5949588814138478,0.8008864545287786,0.35786737014979564,11.63496790191014,1.266280398015165,11.017088810233009,2.00973138484233,12.298666291696783,1.1893372589501483,4.487184411321302,1.2729277293397914
12.493769282031241,1.6087669374816334,0.8125074720991218,0.36081901559985613,11.8733674477848,1.2810948818719596,11.017942098280264,2.010009935519403,12.531745889133052,1.196289402922987,4.520687798413994,1.277829003660803
12.72656744676451,1.623928966097898,0.8242864443682794,0.36231944424717455,12.111074802783358,1.2889393430210943,11.018844567564521,2.012354977133779,12.76405444002173,1.2163850295204843,4.554007456121941,1.2841021253074283
12.956315575541465,1.6377608088713052,0.8359265918446123,0.3636353010632326,12.344003287341977,1.3004232311438324,11.0197852206809,2.0164540286182704,12.994323609139293,1.2243910662844277,4.587464091022941,1.2914096402136261
13.18673457390028,1.6514823100180422,0.8478208191407416,0.3632807380154702,12.577751500299746,1.3000955325337282,11.020778495328894,2.018568520253282,13.224035063013233,1.243311653074182,4.620640108009768,1.2975238261990776
13.413772989427313,1.6644913852131946,0.8599549321026307,0.3689993988822246,12.812127543768494,1.3247807152899131,11.021817181900463,2.0117476136883083,13.451512228652197,1.2432056157746223,4.653664706867887,1.297809902002883
13.641254686240789,1.6785189780218248,0.8722258887076417,0.3729798450816445,13.045303741513067,1.3407473904712113,11.022900991424915,2.0134798126492908,13.678508103042846,1.2611957269794085,4.6867129909737955,1.3035750776647355
13.866902371791516,1.6923585081517176,0.8844726777295623,0.37756155268497604,13.275504369058549,1.361795304550784,11.024030847830304,2.014435313390424,13.904121446917161,1.2698621685518647,4.719750468691347,1.3087878604279581
14.090072372538094,1.7043102692613514,0.8965478164620115,0.37628137241069753,13.500662370461109,1.3605593926001396,11.025208504667267,2.0164345841103515,14.127772444928215,1.279337324422027,4.75279327304467,1.3146506638841122
14.31728076573417,1.7176716911313485,0.909072462205711,0.37981529180101314,13.730211640816604,1.3734693476108586,11.026437918332311,2.0187628073367745,14.35294231057188,1.2930977329307658,4.785741102160006,1.320740456663827
14.539409279831872,1.7298230552792975,0.921607378443447,0.3809741796312614,13.95748411461973,1.3792904295216617,11.027715868204513,2.0248717564426624,14.575814034267983,1.3049098477882617,4.818787874952961,1.329262581994569
14.758809664293993,1.7412058815665774,0.9343647874959364,0.3855267064226596,14.184736587525487,1.3977254434121813,11.029047238758045,2.0235636722548405,14.79597857785922,1.3145082768441676,4.851546210470507,1.332958352298498
14.979261268907859,1.7538151364245005,0.9471325007539355,0.38923320716820403,14.409612677246454,1.4135754563164904,11.030428789909847,2.0238147478897015,15.015780981416864,1.3226686399758951,4.884326965844014,1.3376146977678862
15.198029367650676,1.7650141667314947,0.9599425635052174,0.39447461911873793,14.632578162614895,1.4358015602260148,11.031862778885783,2.030913458757263,15.234413862502729,1.346874372210903,4.917036741577326,1.3468246340565604
15.414034901650432,1.7768063193464536,0.9726268105650013,0.3938995063915176,14.85148733308431,1.4352028954043177,11.033347608771324,2.026037724139862,15.4508121386722,1.3447566290467834,4.949548658760935,1.3480414725228893
15.625407839748155,1.7876798658254696,0.9854683313797853,0.3978191223016489,15.069712941766051,1.45218408619776,11.034884162379884,2.0247388313046524,15.663755053814814,1.3553956852143776,4.982026933181934,1.3515938654969213
15.84098431616134,1.7999044615676107,0.9985074176908245,0.40019299571292893,15.288406138347364,1.4597538941009625,11.036474415980877,2.019230022987423,15.877706549643046,1.3515794931293696,5.014519226838344,1.352248495258782
16.050167271485165,1.8099503933908831,1.0114151229506378,0.4022266787539256,15.503130056430967,1.4705524531955998,11.038119391737908,2.019788808392485,16.088336031748156,1.3690154288216734,5.046933721980684,1.3569808271986752
16.261506378653515,1.8209376412104281,1.0244375582780196,0.4013810102450536,15.717202143466501,1.466654360477666,11.039817472206366,2.017035598568196,16.298741541324034,1.376650205932351,5.079209073240799,1.359459678452561
16.470372184547895,1.8316023331807039,1.0377550131177606,0.4060631191145147,15.93271620274776,1.4841896256633202,11.041570661998948,2.018200486346571,16.507724819006373,1.3867759127274906,5.1115250277261035,1.3645249078682313
16.673780738761803,1.8401273910573175,1.0512124008993138,0.41002236355574684,16.14657940259248,1.4978802228200665,11.043379214139913,2.020976564496145,16.712883708989374,1.3973799443047363,5.143823892548439,1.370661331054041
16.88187334594963,1.84974631322034,1.0646716530452875,0.41057889188038005,16.35859459442634,1.4992240925824116,11.045245534244943,2.0251033200959685,16.9192433626882,1.40696327754756,5.176141885626586,1.3776967802253137
17.089575134107875,1.8602791965171146,1.0783202505387401,0.4154817494792306,16.570959710362533,1.5180225190772672,11.04716717376992,2.0293595030604608,17.125784299266456,1.4257176648021985,5.208265769628731,1.3848691445208385
17.29490316662506,1.8705244211065026,1.092000662346693,0.4156600960446001,16.78138550969888,1.516880433996616,11.049142781450898,2.0287384925395386,17.330979557884923,1.4321336841268524,5.240245661338711,1.3886779471224855
17.497149107106114,1.8790639788305281,1.105773497674781,0.4220468468815254,16.990573942997813,1.5430798434200481,11.051176809327226,2.0314660323377898,17.533936342256872,1.4420076724730784,5.272259468786223,1.394727639301013
17.692605052218532,1.886679232613724,1.1193466201740863,0.42350134576926357,17.194141641727686,1.549857465385041,11.053263969045904,2.0289292399864363,17.73186867330557,1.4475131866823912,5.304076786967766,1.3971558945049936
17.890617973190555,1.8944660969433118,1.133160061440991,0.4274910180728625,17.398094571539847,1.5634532633140696,11.055406030418498,2.026227303026802,17.929282495055904,1.4557098977526644,5.335788667768048,1.3994327372561348
18.089786626764166,1.9030592928752426,1.1469557605104455,0.4275994554244682,17.600271342658193,1.5624500933519372,11.0576005147197,2.0191431676604465,18.127111034706356,1.4596622970550313,5.367306303215538,1.3986412293759638
18.292960067703348,1.913590678205438,1.1609496673710957,0.4314661870278459,17.8038374226113,1.5761884167323814,11.059864153799051,2.020964473755444,18.327683729612016,1.4636980222557732,5.399110505903408,1.403900375028342
18.4964460861456,1.9241420335202388,1.174927584019837,0.4346230863805002,18.006426588691646,1.5880027604288465,11.062184945540027,2.018225383417013,18.5293817260853,1.4703261118935047,5.43070604647363,1.406024572755087
18.691270318910846,1.9321719868292093,1.1888463265738205,0.4361057887704292,18.206213564512208,1.5938624715173053,11.064567819627118,2.018069624693186,18.726508867645084,1.478705472178774,5.462294604779675,1.4099096132271918
18.884300354872053,1.939978399642743,1.2029326343612587,0.43912398519027124,18.405532434805977,1.6038145877785792,11.067014762583144,2.023210238790982,18.920713773520145,1.492999371995585,5.493917029168392,1.4174805544917235
19.077026910587655,1.948248309677345,1.2171162721268423,0.4431250240979217,18.603881149465046,1.6176682796442363,11.069519462143038,2.024378058160195,19.113457604233027,1.4995086518187166,5.525411575709588,1.422269372854102
19.2661120063567,1.9555745986163582,1.2311585989432852,0.44336221707806805,18.798551059776056,1.6185500511690896,11.072081375933342,2.023165651470619,19.303485391680496,1.5054466543673486,5.556782599391845,1.4253683940561828
19.456600210170848,1.9642221221993197,1.2453410621768055,0.44694608646370615,18.992981241270307,1.6315623520851366,11.074696231218116,2.0172511808689295,19.493183369037364,1.509112514038456,5.5879493361926365,1.4251293410604404
19.64057934516115,1.9719067209058552,1.2596475181180355,0.44835031292367383,19.18591096935692,1.6337662148387868,11.077383060313428,2.0185360565110613,19.67907958446293,1.513398960178624,5.619313930654357,1.4298793918658401
19.825988903685502,1.9797664711780556,1.273945811534276,0.4514441885093059,19.376930787491602,1.6454876870317543,11.080128014119103,2.0170057378547903,19.86413546368532,1.5181004555731794,5.65055201139076,1.432642773326812
20.009775566812937,1.987754278530794,1.2884831450503975,0.45408991654313935,19.567963455490506,1.6514063292836811,11.082933068648607,2.0121549447020826,20.04790230667794,1.51657023985549,5.681715467050929,1.433007848547584
20.19090526229303,1.994747674087507,1.3029425834749746,0.4569628342214967,19.75612969572234,1.6621852260896537,11.085802346495226,2.0160939771533983,20.229619093807344,1.5365126206158584,5.7128717623697165,1.439633502141981
20.375102623451976,2.0038070205511542,1.3172914278545278,0.4573403609025404,19.941857144159655,1.6635132066588665,11.088736763389491,2.022797844778907,20.412238874471466,1.5503844289830182,5.7440399841855205,1.4482196170691983
20.559164331376564,2.011216096875217,1.3319977633934557,0.46148730154316625,20.12961093620032,1.6751762086071291,11.091725256733017,2.0283890219202676,20.59510625882063,1.567712216574974,5.775020477631628,1.4560443275925778
20.738306019380122,2.017526263951703,1.3466704866468058,0.46528295856319335,20.315103697591734,1.6881899954981212,11.094768864446731,2.0293695664173064,20.775182209392266,1.5736996751930419,5.805854379484412,1.4605327557205932
20.914867389009107,2.024754262786431,1.3612068891918667,0.4657391774976685,20.497209705243023,1.6893469849511795,11.097873811534832,2.023404176877112,20.952666732110536,1.563221823159978,5.836638586787139,1.4599435037212174
21.09141919398041,2.0313445830466756,1.376130422156361,0.4704507118025633,20.680848331681428,1.7025412334270051,11.101049827512481,2.0254391474182234,21.12917010324434,1.5747462327950952,5.867487729584795,1.4651011916042236
21.26510624261728,2.0381019822605793,1.3909122855880656,0.47043661491762767,20.861167639704387,1.700612222621903,11.104283876457101,2.0255376726690275,21.303442602739125,1.5820865241365405,5.898216018732416,1.4688584978830732
21.43511507190659,2.0448908165902835,1.4058846648881425,0.47471750866270046,21.04062626750151,1.714637957779231,11.107578446363364,2.0322562310439647,21.47466483346842,1.6050813296229542,5.9288730583585885,1.4774304988386653
21.60470150789755,2.050083204796596,1.4207600452669098,0.4765413274944925,21.21697476168553,1.7201955563510025,11.110939958505604,2.0290272469355024,21.644378704785847,1.5884657532917112,5.9595580188944295,1.4786816428397993
21.77208574997001,2.055230177181925,1.435665913233843,0.4797309977355537,21.391364562180215,1.7309294663733659,11.114361388307204,2.028886605337498,21.812254952484224,1.5984789117536355,5.990147924088935,1.482201615919835
21.93710381542178,2.0608439468220516,1.450483021417882,0.47928694865810545,21.56279286441588,1.7275703688393504,11.117836236153135,2.026672710855978,21.9778680158016,1.6053928055069782,6.0205848826090245,1.4841969161228674
22.109038246324687,2.066254001601183,1.4657312523035642,0.4834483094277534,21.737067671261094,1.737553580349694,11.121379474233711,2.02855191394744,22.146696208146274,1.6145829892626382,6.051053704615606,1.489148264968691
22.275264968585972,2.07046195650378,1.480947875805917,0.4890156036209881,21.90937395702493,1.7568082573060342,11.124976115233709,2.024870639853696,22.313419940878518,1.6146070854541894,6.081360891207828,1.4899990438868636
