coupler,coupler,$D^a [mM]$,$D^a [mM]$,$I_{islet}^a\ [pg/islet]$,$I_{islet}^a\ [pg/islet]$,$\gamma^b$,$\gamma^b$,$I_{cell}^b [pg/islet]$,$I_{cell}^b [pg/islet]$,$G^b [mM]$,$G^b [mM]$
2.697190237404954,1.069479034118772,0.5037735341849707,0.22491518367356744,2.697190237404954,0.44971915894444103,11.000302410160694,3.451493249598756,2.0092083612429876,1.4614827388842262,3.2059466868479918,1.8600849561058002
2.978122330568991,0.9641818369477972,0.5077589123832391,0.2759834052062102,2.978122330568991,0.522161252471041,11.003130634006737,2.608968687372784,2.532367909227134,0.7895207466257382,3.239040399824958,1.4073969301456115
3.2581651788234227,0.9249542834003429,0.5115344500499661,0.28499019835542566,3.2581651788234227,0.5454260893470453,11.00508624376279,2.303578361170721,3.0416917392553953,0.6327056052644836,3.2760806537071216,1.246305472358611
3.537609167024927,0.9138620020257574,0.5157033552480977,0.2879211332673441,3.537609167024927,0.5726156673291674,11.006213838723767,2.15990274614221,3.453026803415814,0.6306902303971826,3.313075426970252,1.1734109808150124
3.8148712755459004,0.9186716412680782,0.5203246524836808,0.29031630463907454,3.8148712755459004,0.5993883896635432,11.006923292515383,2.0908706267823973,3.800016568525477,0.6653686632633301,3.3498733338321065,1.1413785458788195
4.090658007432271,0.932150465100505,0.5253475644859451,0.2903742484243148,4.090658007432271,0.6179100529672948,11.00741455260663,2.0546138741458866,4.1115818596855656,0.6963997129744526,3.3865706228795722,1.1273194072205088
4.365283282121045,0.9524422775251732,0.5308010457306304,0.29062031291675944,4.365283282121045,0.6364598766539612,11.007783699259663,2.043957346773806,4.4044284429626686,0.730967727513882,3.423253098500042,1.127383067615916
4.6395388954483865,0.9747338516931332,0.536656685531236,0.2936214312273538,4.6395388954483865,0.6636978581008206,11.008140066398578,2.0215800259642664,4.686900771191552,0.7498211324663909,3.459420782970208,1.1210187275851957
4.912608599298363,0.9983493853184019,0.5428008235231916,0.294283346907597,4.912608599298363,0.6807566901920533,11.008408432098273,2.025980850756416,4.964478654915274,0.7807649989241878,3.4958984085745235,1.1293758735854458
5.182971870318649,1.022984890238555,0.5492893562649763,0.2956027276333245,5.182971870318649,0.7000251321986639,11.008699791073935,2.0184457202282053,5.237266082030876,0.8037516783227454,3.5318356924141012,1.1311742384530266
5.45313047806615,1.0493306588478628,0.5560244008216908,0.2981449501513678,5.45313047806615,0.7246451816693043,11.008960327828426,2.015572936303373,5.508073076986355,0.8244289185611567,3.567775495563418,1.135434691120994
5.722982422005513,1.0762820866102332,0.5631560451178541,0.30167926671451406,5.722982422005513,0.7455063417806569,11.009215782936558,2.0140925252318147,5.777628395352211,0.846210752854682,3.603582379086892,1.1404356646973706
5.990378030111623,1.1015889433857622,0.5705420430590034,0.30191438366708295,5.990378030111623,0.755073385187394,11.009449662650619,2.0092147556609024,6.045512988173362,0.8567670630547018,3.6394496066405937,1.1433488079077299
6.257533059336723,1.1271211288265457,0.5781833697736758,0.3029481785188857,6.257533059336723,0.7716229643529607,11.009691412770607,2.0130606210266313,6.31240814363605,0.883621738060582,3.675206788448795,1.151289097147093
6.522738678374353,1.1523730697783194,0.5861098859321537,0.3049749087799687,6.522738678374353,0.7891494959007398,11.009940190475817,2.008017845103195,6.577569979159328,0.895966899545888,3.710808958083867,1.1540626058909096
6.787093213018468,1.1761151084162633,0.5942759853855845,0.30726025297320253,6.787093213018468,0.8065937570389367,11.01019199852883,2.012413062923417,6.841723507173518,0.9213043758661431,3.7463836157604167,1.1622569431520657
7.049228055226476,1.1989871233328748,0.6026001151078255,0.3086903508798823,7.049228055226476,0.8216020077819512,11.01046576247605,2.015879554182435,7.103898018035874,0.9467790975891309,3.781692535104331,1.169949791081971
7.311808454556317,1.2227120404904899,0.6111777413808713,0.3113710409117573,7.311808454556317,0.8396657361592075,11.010747240527786,2.0167736424242895,7.365426691613172,0.963849349133791,3.8169189599127753,1.1760565035108286
7.573972972072127,1.2459902589886058,0.619946616488582,0.31549504729015226,7.573972972072127,0.863259214377609,11.011047695652021,2.018485013382612,7.626474937346354,0.9846188784477548,3.851999174290293,1.1826203646279614
7.833435599231474,1.2682119162729395,0.628970504284925,0.3147208481155135,7.833435599231474,0.8602797341959805,11.01135548844122,2.0227852147510768,7.8860463449706835,1.0040322666468848,3.8870739982531717,1.1906354572774729
8.090047087705226,1.2891075605802456,0.6381692714810722,0.3184285462795667,8.090047087705226,0.8871734643092835,11.01168677901901,2.0162812721255827,8.143351802399325,1.0106915196722182,3.921974158105963,1.1922178840650801
8.346079863831566,1.3101550883640556,0.6475426649926298,0.3203912328223005,8.346079863831566,0.8977977390973815,11.012032066933019,2.0224392140770933,8.39950535199052,1.036562660323058,3.956902759300184,1.201287137470137
8.599368043248642,1.3306418390204118,0.6572143385210063,0.32441949973686623,8.599368043248642,0.9167219312117005,11.01240321679259,2.0215342142344164,8.653344541466883,1.050145358495459,3.991656926456963,1.2061269612697163
8.854484495286762,1.3507534710977929,0.6669111917740176,0.32493138973233576,8.854484495286762,0.9231960736705491,11.0127987228301,2.021531495208626,8.907092649136038,1.0661875613273382,4.026338648105781,1.211464549975797
9.107305314889036,1.3704966354974204,0.6768952358449168,0.3282391429261053,9.107305314889036,0.9408827303775276,11.013215971806945,2.020215240217778,9.159691940689218,1.0779698713700794,4.060991109444217,1.2159454673531669
9.358443275790759,1.390145713225261,0.6868855036250278,0.33033949570520016,9.358443275790759,0.9555546267714032,11.013665689687326,2.0182781868699124,9.410817049543367,1.0935751241951892,4.0954899173065735,1.2200453957818977
9.606907290670248,1.4089942986570945,0.6971171013752019,0.3325344356170337,9.606907290670248,0.9655846287045098,11.014140261778119,2.0165894085358653,9.659921362765624,1.1070116386117637,4.129937784327897,1.224230504339245
9.854020999037171,1.427616451033727,0.7075292304689473,0.336944196930726,9.854020999037171,0.9870627082975941,11.014642851679264,2.0162851350134994,9.907349238689036,1.1219570771338003,4.164328109110794,1.2292173037992116
10.100296743034146,1.4448638912822214,0.7179756484388694,0.3372348885505137,10.100296743034146,0.9888893068323295,11.015170306014623,2.0223169694168877,10.153571311197389,1.142217223450126,4.198751941233452,1.2380447818744693
10.347034359572058,1.4632221419333682,0.7286735476795954,0.3409641101053936,10.347034359572058,1.007910434483361,11.015739636978962,2.0164364451958376,10.399119547380316,1.1477858176083808,4.232934482645186,1.239551606419161
10.590929345698033,1.480492355157621,0.7394520998494142,0.34300580117962925,10.590929345698033,1.0172245177514831,11.01633404795518,2.0230902767943912,10.643355181569362,1.170840437068989,4.267212816074836,1.248734851149413
10.830612646225541,1.4969971823741024,0.7504094888284298,0.34492590424588393,10.830612646225541,1.0257699608976416,11.016969011643962,2.0269197233743323,10.884442174582258,1.1912872176151992,4.301254305708435,1.2562123338202147
11.073417028429077,1.5143555051904416,0.7616090223796549,0.3471799097974345,11.073417028429077,1.0337515086439069,11.017644269852912,2.0233084786306943,11.125449789765698,1.2012536010304506,4.335089260589542,1.259025257832394
11.3113654070075,1.5307647171670113,0.7728729187067939,0.34972929326954366,11.3113654070075,1.0475644091596268,11.018351435702652,2.017715867862976,11.364317642130523,1.206565311909332,4.368900349051473,1.2604934423763992
11.55110781713058,1.5473372264681666,0.7842466298055063,0.35171436204528944,11.55110781713058,1.0562575535845362,11.019088144168313,2.022886987307367,11.603144018508571,1.2239899889768329,4.40287543921587,1.2686335583803707
11.790535429276014,1.5641119621692288,0.7956922477762746,0.3556165646989319,11.790535429276014,1.0763404701620383,11.019876701165227,2.0116529558873335,11.841270341027137,1.2237690453906356,4.436500562366994,1.2664775713508758
12.025394070161024,1.5789705056438754,0.8071967527899536,0.3578313997714994,12.025394070161024,1.084791321801523,11.020692905993567,2.0200555285747783,12.07744782171986,1.2487163638465264,4.470372457729179,1.2766289477902868
12.261429209760452,1.5949588814138478,0.8189274093645841,0.3603544185061329,12.261429209760452,1.0926474561866717,11.021558549014436,2.021977880344421,12.312549332774651,1.2662808163858235,4.503949700945921,1.2827400965466453
12.493769282031318,1.6087669374816334,0.8308320245171509,0.36411079278682007,12.493769282031318,1.1073118458255207,11.02246322147611,2.022954529775695,12.545552513069806,1.2788872052395366,4.537458349560118,1.2881945163904316
12.72656744676455,1.623928966097898,0.8426194893322984,0.36630279993302856,12.72656744676455,1.1199061943416297,11.023410759030968,2.0215996553173254,12.777718343925471,1.2885966046141049,4.570872091597134,1.2921195859818084
12.956315575541415,1.6377608088713052,0.8545491874247763,0.3667591872226874,12.956315575541415,1.1193896057948334,11.024397597599455,2.0222561012442895,13.008127620217662,1.2972839950402153,4.604346142354935,1.2972603769568922
13.186734573900269,1.6514823100180422,0.8667817593347438,0.37169485876680114,13.186734573900269,1.1393406431063742,11.025434989575277,2.0191127386879377,13.237714792837032,1.309444446655158,4.637577841529179,1.299987101841483
13.413772989427365,1.6644913852131946,0.8789076729317652,0.37529275248173927,13.413772989427365,1.1556967468566772,11.02651318386318,2.0164063440197038,13.465426759695076,1.315238522119235,4.670853231038697,1.3028973718002503
13.641254686240737,1.6785189780218248,0.8911800794181074,0.3759212239756332,13.641254686240737,1.1523866536325216,11.027636828597231,2.020913191698888,13.692433530716832,1.3332135416208977,4.70415386782049,1.3104637378793123
13.86690237179144,1.6923585081517176,0.9035625651005404,0.3779352106860629,13.86690237179144,1.1625240573812612,11.02881092263504,2.017153696168231,13.917870066256048,1.3414454677366616,4.737197406812812,1.3126724176128208
14.090072372538046,1.7043102692613514,0.9161534282495905,0.38100300194618786,14.090072372538046,1.172161119346997,11.030027809889113,2.016991120565545,14.141685187324505,1.346926543850256,4.770385479426553,1.3171168352434839
14.317280765734216,1.7176716911313485,0.9286976621773047,0.38491827465601264,14.317280765734216,1.1910400613347716,11.031295475513948,2.0191881505989944,14.366542845539946,1.357936077326825,4.803580511678585,1.3230986301951408
14.53940927983187,1.7298230552792975,0.9413349836659501,0.38777975964287054,14.53940927983187,1.1992140524526937,11.032614851145343,2.022339265110333,14.589313756058251,1.375555689986253,4.836625623422661,1.3297433049715013
14.758809664293976,1.7412058815665774,0.9539362529823834,0.38926117798103543,14.758809664293976,1.2058864644776808,11.03398300123758,2.0198701105499093,14.809695612301113,1.378653100218179,4.869600762203407,1.3326311187236437
14.979261268907955,1.7538151364245005,0.9668339589509474,0.3936516807193634,14.979261268907955,1.219863844849935,11.035403922147047,2.015450344605381,15.029319399885408,1.390579357887109,4.902334371396489,1.3342420496217393
15.198029367650719,1.7650141667314947,0.9795652772267782,0.3933566416546316,15.198029367650719,1.2181667918068013,11.036873262334202,2.022205313267596,15.247937805852384,1.4116701921255814,4.93519139974176,1.34319123801277
15.414034901650451,1.7768063193464536,0.9927609941505883,0.3997974335720232,15.414034901650451,1.2407312025501989,11.038393854816992,2.0125875641845945,15.464369282285583,1.4051193068237955,4.967786752343525,1.3412152057837685
15.625407839748071,1.7876798658254696,1.0057024071050344,0.4003309206386609,15.625407839748071,1.2412432149397676,11.039965948871798,2.019536582177305,15.677874153988407,1.4314471880250574,5.000463181576648,1.350270834226631
15.840984316161368,1.7999044615676107,1.0187387535113506,0.4047572324982397,15.840984316161368,1.262244288219753,11.041590322318998,2.021210634975773,15.891602678417097,1.4366176222044493,5.033117576942922,1.3557485253172377
16.050167271485225,1.8099503933908831,1.031859664504572,0.4070173942180908,16.050167271485225,1.2654535704655074,11.043268224447353,2.020768199296438,16.10246019565808,1.4435544607707804,5.0656713414027,1.359798540767078
16.261506378653593,1.8209376412104281,1.0450376787922042,0.4081050890306122,16.261506378653593,1.2673043875001069,11.045000883224104,2.022314178717104,16.312900774728515,1.4547184832935243,5.098194821020732,1.3651674484734626
16.470372184547845,1.8316023331807039,1.058364710113244,0.4103685333680475,16.470372184547845,1.2746202261994934,11.046787860103544,2.020592059024101,16.52185832645384,1.4599999272721305,5.130628905486935,1.3683010070331243
16.673780738761877,1.8401273910573175,1.071795277694487,0.4122764824750999,16.673780738761877,1.2789966189966087,11.048629231265194,2.0236526828484944,16.727473098004204,1.4763382916602321,5.163009963311377,1.3746701343645302
16.881873345949742,1.84974631322034,1.0851797352674555,0.41459317974821575,16.881873345949742,1.2901347410616961,11.050524131262447,2.022881566039784,16.93347299867271,1.4860758124807538,5.195230873953373,1.3784221754104675
17.089575134107914,1.8602791965171146,1.0988651462338406,0.41843056365246556,17.089575134107914,1.2981780863857049,11.052475726191917,2.025405914873064,17.13966410242195,1.4973313333664375,5.227477086291045,1.3843714039911537
17.294903166625097,1.8705244211065026,1.1125255699300753,0.42166778324991033,17.294903166625097,1.3096070448251211,11.054482712095188,2.025741119908522,17.344698572294465,1.5068092622650395,5.259600553704037,1.3888148838006642
17.49714910710601,1.8790639788305281,1.1261469645946718,0.42271738922984387,17.49714910710601,1.3115483275184388,11.056542128645795,2.019194478033201,17.547571380288293,1.5098048226420728,5.291498344232815,1.3885111815322455
17.69260505221855,1.886679232613724,1.1400442733446339,0.4272077523952801,17.69260505221855,1.325504723837188,11.058663816850249,2.021957998928019,17.74642253458779,1.5164695930792988,5.323641946714263,1.3945039819392817
17.890617973190647,1.8944660969433118,1.15370818717766,0.42978450961041526,17.890617973190647,1.3377645887425247,11.060845753060823,2.030622360407393,17.94424674856667,1.5362249276551723,5.35577230983337,1.4046095761982103
18.08978662676416,1.9030592928752426,1.1675849089926293,0.4329075080211379,18.08978662676416,1.3435204072019775,11.063076658299153,2.0232852017912637,18.141754720598627,1.5352120607327446,5.387521780697615,1.4036619613340366
18.29296006770326,1.913590678205438,1.181508710944762,0.43576732006329644,18.29296006770326,1.3517300055563344,11.065371400897572,2.0271943901702403,18.34149666130918,1.5514388429418817,5.419397754138212,1.4104555404749928
18.496446086145603,1.9241420335202388,1.1954385098023355,0.4363605986410333,18.496446086145603,1.3504830669304102,11.06772489722335,2.025394296119855,18.542299701201802,1.5537861477639916,5.451176974658458,1.4132446348611825
18.691270318910842,1.9321719868292093,1.2096259890300907,0.43847882090857226,18.691270318910842,1.353709036335965,11.070142217821651,2.029405662649349,18.73965012715953,1.566275869129993,5.482997455573044,1.4200659855398048
18.884300354872153,1.939978399642743,1.2237974854328002,0.44079275128996626,18.884300354872153,1.3625747952748999,11.072615589641805,2.030953381599983,18.934140965276303,1.5781013107436834,5.514647181465829,1.425180290699223
19.077026910587588,1.948248309677345,1.2380012929479587,0.4444836809315556,19.077026910587588,1.3764135447067654,11.075150351362387,2.0301366575120237,19.127119373028286,1.5798725628112047,5.546285503817343,1.428578126644661
19.26611200635667,1.9555745986163582,1.2523399109269047,0.44592617206730595,19.26611200635667,1.3733055473924825,11.07774235502854,2.0322437673067486,19.31752835256705,1.5960509722057243,5.577788165194906,1.434052127193313
19.456600210170887,1.9642221221993197,1.2665540991177795,0.44840722115692677,19.456600210170887,1.3871705145371642,11.08039270459611,2.0297932561074674,19.507237520032596,1.597951201508511,5.60921105456674,1.4362565553251745
19.640579345161164,1.9719067209058552,1.280923804508736,0.4535058075320555,19.640579345161164,1.4038529565862858,11.083098398008788,2.0253143661376707,19.69347370298613,1.602655221078336,5.6404846038373915,1.4369993936845584
19.825988903685502,1.9797664711780556,1.2954066604333285,0.4556855737125736,19.825988903685502,1.4019092409104095,11.08586330676065,2.02562221937479,19.87863866372104,1.6171538481629193,5.671697722253107,1.4411109581855168
20.009775566812944,1.987754278530794,1.3098383488217984,0.4563904628713358,20.009775566812944,1.403111073758849,11.088698676721473,2.0265964397079106,20.06256749769246,1.6161331939545414,5.7030572909941455,1.445606652323642
20.190905262292898,1.994747674087507,1.3247054144542674,0.4610000253728581,20.190905262292898,1.411965265418111,11.091589719665071,2.024784910734366,20.24445776593316,1.6220453322653428,5.734242183953748,1.4481394565320787
20.37510262345216,2.0038070205511542,1.339229569030937,0.4615589262329697,20.37510262345216,1.4161206223761076,11.094542889299134,2.031170107593435,20.426808794148357,1.6453130156003315,5.7653852531847445,1.4565464910889812
20.55916433137653,2.011216096875217,1.3537381085365279,0.4630069035725947,20.55916433137653,1.422966668040327,11.097551352809884,2.028866677007193,20.609182435652308,1.6454128561769397,5.796383488753724,1.458683349199253
20.738306019380005,2.017526263951703,1.3684279136627875,0.46672369440214523,20.738306019380005,1.4334641522552685,11.100624256738076,2.027431953230718,20.789403621089765,1.6483366740737915,5.827368507230303,1.4613979233985808
20.914867389009043,2.024754262786431,1.3832736525602995,0.4703549943652438,20.914867389009043,1.4396851964168529,11.103759978294704,2.0272260323275275,20.96722416225951,1.655125090502266,5.8583065801233625,1.4649765601800924
21.091419193980503,2.0313445830466756,1.3979586605380774,0.4729686984699152,21.091419193980503,1.4503343996098204,11.106959524756842,2.0235722829087415,21.14378918236548,1.652013792299748,5.889212769445018,1.466015842962315
21.265106242617314,2.0381019822605793,1.4128770660602248,0.47467864883476163,21.265106242617314,1.4466818828976915,11.110222202834013,2.026374543010605,21.318353589436285,1.668331497665265,5.920065435643593,1.4717428902743674
21.435115071906644,2.0448908165902835,1.427851493075566,0.478469652510912,21.435115071906644,1.460140591342443,11.113542583799012,2.026105836098648,21.489976929451892,1.6741090040664874,5.950812390089468,1.4752163587823017
21.604701507897545,2.050083204796596,1.4427896473998019,0.48140701101003797,21.604701507897545,1.468019759352165,11.1169306316488,2.0277812724134074,21.660018374016538,1.6794290717091729,5.981585667521834,1.4800659689565758
21.77208574997003,2.055230177181925,1.4575790321681286,0.4834065509718629,21.77208574997003,1.4763290679052035,11.120376393212156,2.034130194017978,21.828099490033143,1.700265666379893,6.012248809250482,1.4883584709790716
21.937103815421818,2.0608439468220516,1.4724739605627315,0.4851339718387578,21.937103815421818,1.4773691421587554,11.123880863300704,2.03078032016354,21.993974649228388,1.6919870737259382,6.042835864391614,1.4894929967101747
22.109038246324676,2.066254001601183,1.4875032159448591,0.48857548797291667,22.109038246324676,1.486309308826646,11.127440922521371,2.0293204309833084,22.16215061038874,1.701784663427869,6.073289652726763,1.4920190558416033
22.275264968585923,2.07046195650378,1.502524422041037,0.49135527988396355,22.275264968585923,1.4933265617905753,11.131077846877842,2.025491473975898,22.328816965646922,1.6912992510386151,6.103858223746824,1.4927052890370514
