$D^a [mM]$,$D^a [mM]$,$I_{islet}^a\ [pg/islet]$,$I_{islet}^a\ [pg/islet]$
0.5173807108135092,1.1400470282267245,3.038400536965396,2.280559387257152
0.56081568313765,1.4108513195850174,4.071847790726521,3.33533407709951
0.6253088574969173,1.5199594552209206,5.113838316015063,4.0366963490154495
0.7049065362294644,1.6075905312895427,6.108047974091363,4.555714412148408
0.7918494388604163,1.7005533117787877,7.1457408636502056,4.992651451202211
0.8899365408097664,1.802534300405352,8.186761009450233,5.405607218692116
1.0158583686406595,1.9203655240161521,9.134023987965222,5.788268647427114
1.1368381851929368,2.045522490022542,10.034150785531988,6.1217684844303735
1.2769336719418545,2.170902743008704,10.964158699261345,6.430818043267499
1.4312687746502297,2.308021786948698,11.838539845619074,6.736760990496964
1.583449794563108,2.412647417757445,12.744875281342098,6.9297607886338906
1.73990299370312,2.547772205024276,13.658573521262284,7.220264659611924
1.9074215722691035,2.664464832899685,14.366849414047323,7.433857561652505
2.045189987473111,2.7825354334814523,15.448147525874726,7.673601507194014
2.188526336888501,2.8937896927086997,16.306520138871818,7.952201656176284
2.3552488908240177,3.013198651591614,17.04659927432126,8.204888555284338
2.531530955622533,3.1093450935991354,17.673962515378275,8.340087098318213
2.722068855698153,3.2170672672923315,18.579884667653456,8.4990902208383
2.8725265888049827,3.3459339603378635,19.515408139589844,8.765219905009532
3.0732077613913042,3.4170525912333507,20.326258514648536,8.884631310906649
3.251067358447116,3.540164264113859,21.08297679738028,9.103518620774274
3.4763158097016396,3.6297221801290394,21.602851188999537,9.199935013724218
3.6724870540983665,3.76714931616583,22.329302460768737,9.392856277238842
3.8398698343556554,3.8780113940887424,22.95414127817079,9.565502522694398
4.0359509457112805,3.9459767070382497,23.743584885419803,9.64807393156922
4.2621616037073435,4.051192545822861,24.30467256214309,9.797897629478603
4.47755547389654,4.166073588135501,24.83804130471063,9.933265777308009
4.6671495103999545,4.27726884355988,25.405663679557016,10.074079572886278
4.919684795593951,4.379804881309953,25.77499164167272,10.177023900922824
5.131925066540527,4.468794956829916,26.356341229427027,10.229809880455216
5.30359380836033,4.584361088091876,26.816214033299914,10.391311319875378
5.477386716929751,4.654333733283845,27.40916780121647,10.474377531348884
5.697860243394782,4.748378639830346,27.46916870734507,10.575391582327484
5.863058206625406,4.836087497230335,27.96086382521913,10.636630225810986
6.096772674065553,4.880266439760502,28.46773269238279,10.642798115285238
6.266008449118122,4.941945114762631,29.184005746092105,10.705366169218927
6.488151380738033,5.066305263672304,29.589053118777407,10.914245622801218
6.665677806138654,5.140091829720462,29.866222698380522,10.972061687986114
6.872115400883779,5.172065285537546,30.256554490672272,10.942071056542868
7.093044951570096,5.2783085178952724,30.436871824178695,11.053127808340466
7.3695985438326135,5.389461683928827,30.698901425583845,11.137109219403293
7.559135115159789,5.471548649818435,31.09818429063441,11.178483792983393
7.696586551807626,5.528768459046499,31.602289933516857,11.239064978328372
7.944377907731439,5.5809741370682575,31.79188285306377,11.276524928382795
8.201936067093017,5.671658800314892,32.02065251011993,11.327004512823967
8.416522911247437,5.743026063263945,32.29689205451894,11.345318192724008
8.610096533057272,5.842606981445402,32.41094777181513,11.435339631730251
8.853101307232455,5.911727636762547,32.694586433915816,11.460052919968085
9.037761568372336,5.98771236054187,32.85814382018251,11.504341488216138
9.323804248581396,6.070392173787469,32.67255820289032,11.52471005512084
9.513075377791395,6.140658837936605,32.60382500038597,11.487464268573435
9.689629743059843,6.199913914212509,32.48229563162101,11.464407826453307
9.911694134120522,6.282929284814745,32.86384637032894,11.512273309495624
10.12956288117773,6.3524232925645645,32.766158563238,11.54048036578729
10.393078274580944,6.459657232863911,32.88419330614681,11.603121801570001
10.62698131207004,6.506262103085235,33.333727793683806,11.586364509175722
10.804086448279044,6.5823925907056555,33.48345092784958,11.656990340206582
11.043840174446482,6.647705113427341,33.7643792993055,11.6991194228208
11.37303894544761,6.726263287825893,34.166112239775025,11.74903218659023
11.547290183008638,6.7794076157229135,34.43521287245496,11.763770125644614
11.691327248334863,6.845922620723314,34.29474411215024,11.810221537412314
11.9416426944816,6.859580983039802,34.36456870618608,11.734095916200292
12.253834435616888,6.96113805506031,34.06252504713114,11.76257836258929
12.550855132735924,7.041131137795517,34.34811193772693,11.743383126975205
12.794093564063516,7.168558287321137,34.48211858397787,11.855233425841853
13.040107536054093,7.237647830182164,34.32450042620757,11.857643939280726
13.29766060323817,7.284726317693802,33.82914554202044,11.775346004447377
13.545148871555844,7.377799565669038,33.76800519138769,11.760935224438203
13.776407197923158,7.436280952541797,33.76561527094495,11.734989861924534
14.0361625678559,7.524238797586033,33.500613748837225,11.749684507825815
14.356359429510007,7.544464378268631,33.24867017183749,11.621836382431383
14.435074865469108,7.640661664530069,32.95745159564663,11.631881240535296
14.610635840482,7.672037856947181,32.62096763275653,11.570747694922833
14.906799056358901,7.7187790319935,32.422026457724805,11.506289368815557
15.30606710387915,7.828232903165789,32.37906078369756,11.516726165297282
15.611384134638575,7.866736936243716,32.2437453069626,11.422773717854977
15.764558579042902,7.95896173889023,32.04588449240158,11.435487820806186
15.917025134907226,8.033797830013045,31.921448949489182,11.451863379442198
16.215835260887825,8.094662776075985,31.963812183995913,11.450283113833853
16.299350113343248,8.113467880485304,31.5503683094574,11.37789247995533
16.411861269509416,8.148643534713072,31.218963902859837,11.326099646929706
16.59492681486669,8.14790051980517,31.019141153160856,11.225946682910154
16.81750108697548,8.229998841658027,30.975256955404024,11.246368611997143
17.06843550713716,8.28363863494271,30.606866484045362,11.209384838986905
17.401331686696146,8.313683271548095,30.326832693851088,11.102045810227828
17.630161438224476,8.425898003847848,30.080303436331068,11.110299694121714
17.9420781320106,8.49790207888562,29.75360236992852,11.067719409030556
18.27267255275948,8.586290611160196,29.58657798138647,11.037340739462195
18.429568289919075,8.618448403547896,29.44023754937874,10.966633910439729
18.726497606756123,8.686011083998263,29.322529622131594,10.959111276668777
19.268905981130214,8.769882380675394,29.107630313316534,10.923696846460093
19.428694808074717,8.86206754701369,29.05653783218889,10.903767264142605
19.54948909301738,8.90494575829275,28.804441928276045,10.879822031048121
19.439125788702324,8.880164478620102,28.62653404306022,10.799136114105
19.594324825659633,8.942930081569168,28.565116501792527,10.845935050644169
19.72500952270197,8.88977600074658,28.58703355825764,10.738865158060571
20.11776355935996,9.02242750105296,28.182207194674287,10.808478146119274
20.16411336249996,9.013436318458426,28.08294186970883,10.685176410797283
20.432491884590736,9.059239125645323,27.70325934914814,10.653844495215548
20.639446441277602,9.097638272023268,27.45402295496339,10.579988941352791
20.77768997271399,9.160483104407382,27.22742820399642,10.55753113448309
21.127314579334566,9.164886472667023,26.855091996558535,10.450046848663632
21.14897377700058,9.251247785669035,26.772084267761155,10.448850579521547
21.257536684546526,9.2712352222174,26.355009095202327,10.40480361873021
21.551902687028495,9.333724207699438,25.996918018247204,10.359355545842494
21.795038890028945,9.373989288688485,25.774698470992657,10.280796002283124
21.994828550738234,9.44707076836387,25.56437957659238,10.260773750979064
21.969869330163462,9.47715821502493,25.329283947319848,10.22064792222754
22.28293054999742,9.469756734054885,25.531568355353734,10.17062456365159
22.5499714096817,9.463044313064565,25.546036673482142,10.120304473176747
22.657528714785904,9.553774086834066,25.346927092859232,10.159363542758031
22.745786942553003,9.64089682476439,25.148107051159116,10.189889228792609
22.495429912339254,9.55981328551008,25.0699109978358,10.082229383964671
22.72281588503935,9.586559869748843,24.89199923984542,10.093339098726428
22.861252453142114,9.632516038762647,24.638846008246944,10.066584559454906
23.16741505338269,9.681819562596633,24.55968246257433,10.036310702305485
23.357688543578337,9.727273285920587,24.235972703779762,9.991031296535606
23.635656716786748,9.746605435220715,24.187020503094637,9.92033303394407
23.597199178549026,9.77605845490022,23.81646735614178,9.878592259439419
23.79841331252782,9.800850818680567,23.78652077266172,9.842713374143276
24.148285113970985,9.842998034686552,23.557457628413683,9.80699718135979
24.35080578379898,9.893025082142252,23.64669986017199,9.780861624755298
24.346818243787826,9.939189123539888,23.392311195272065,9.784829249800548
24.525482978599076,9.954606288367502,23.49835734371212,9.764156223777443
24.89611813092861,10.029512469480355,23.409798556157888,9.789954040124385
25.156670440999697,10.002075197488182,23.541312668153363,9.704187176306611
25.220086731547728,10.068987215479943,23.25661372024584,9.721975501923508
25.464100146168363,10.086585668953534,23.081388538464925,9.665926125990252
25.874643591062487,10.178007634917208,23.130279916488888,9.677703878937063
26.225035914304442,10.268743066872315,23.237712829456658,9.704372939779432
26.34931103414775,10.344159011539299,23.18691382064629,9.73335523430557
26.5743957129881,10.41359658665515,23.195582749712898,9.760989198245632
26.77373334348092,10.40690377580366,23.191563195775615,9.715893872414783
27.189736764793622,10.424566026666696,23.162720538801075,9.677559821336834
27.281031234916604,10.542632719039453,22.876908814602885,9.711653684403535
27.468619629949103,10.527566890220696,23.03342073259871,9.650728314874097
27.673573091900597,10.606331335003684,23.11790987205042,9.708734199726054
28.096828722622163,10.6272915547245,23.24080238485551,9.698150896505705
28.421108038593378,10.68227209650235,23.328168277219856,9.706597690247278
28.502395796209765,10.716410898276413,23.727076806063586,9.741229233005928
28.977721077368248,10.77510131934535,23.9699116134952,9.81402212768665
29.168820338343384,10.850803107779917,24.165124834839368,9.874156579750641
29.693392442811344,10.927518976183082,24.397406113392613,9.929522218038437
30.262477269353504,11.035550564706991,24.65330488602014,9.988944532596927
30.295351926410714,11.032670652867544,25.05751404974315,9.99085436810736
30.43122007297738,11.181100061858775,25.52398014414424,10.188959180149048
30.4094344681937,11.039762380392062,25.654516383157738,10.113485097924185
30.418853085418945,11.093713254992668,25.931475984642915,10.20562285184661
30.675246730761508,11.10129198250809,26.338999536018246,10.257851113180772
30.713939374920464,11.114535601514861,26.786619448056005,10.325480025342891
30.591029211488284,11.078812484135831,26.97681081241627,10.360013561899962
30.448608829957415,11.11575030089928,27.304543303524042,10.465680662743154
30.20958474049404,11.076463482779255,27.501265247437303,10.510729797240835
30.382601727435567,11.034906958468639,27.80604581927047,10.53089592784006
30.554075053990154,11.131055558584462,27.894228896578305,10.639151614929228
31.069590192621266,11.228454656897206,28.079992762218268,10.706889764937731
31.306046356527652,11.23576455193136,28.24511336172771,10.681044044115632
31.669341533319702,11.202150269598624,28.327804596824336,10.621595381842319
32.02105609420474,11.373459592046824,28.652182763493634,10.759353632178124
32.31554911515502,11.454116686075976,29.08801231512227,10.845140268388175
