$D^a [mM]$,$D^a [mM]$,$I_{islet}^a\ [pg/islet]$,$I_{islet}^a\ [pg/islet]$
0.5172286993757333,0.3317507905865671,3.044694005110311,0.6764117071425965
0.5700355135891385,0.36292651972546885,4.086280505781404,0.8667185259754385
0.638636688257667,0.38640601078755754,5.15078907899968,1.026567302817555
0.7276949413987609,0.40669495535902,6.175698832667228,1.14773694891678
0.8320642007132887,0.43538881922299055,7.182627306582639,1.2633839789463641
0.9495113127705586,0.46640159408875714,8.231064440550233,1.3683674877395144
1.0675473068920316,0.4965218514491738,9.196223107390082,1.460646848613404
1.205776311439439,0.5296718515137108,10.134196543672925,1.5502630818695189
1.350605263220003,0.5584333611577089,11.106958521357821,1.6175562994364232
1.4909008222707094,0.5882169437233027,11.931465230115299,1.6842734917079756
1.6376240853427977,0.6185689471756594,12.917086619674249,1.7520388637015132
1.8035302417748016,0.6495576591003096,13.690218297318449,1.8175310624061791
1.9749199648662383,0.6813378838674278,14.55025058848453,1.875187997941143
2.138188701817667,0.7166764134111913,15.397096684572356,1.9452182934313902
2.314458425772078,0.7423966710143391,16.131230985930408,1.9876376536366198
2.4903292139669033,0.7702177150068737,17.09593030839655,2.036181458148378
2.669167423699953,0.8014308864015801,17.92942700401,2.0985244419653086
2.8128566754556847,0.8282975331333801,18.61275047705685,2.1486535194713947
3.012433820298771,0.8520714896175338,19.32702083514501,2.1864029821560518
3.1966707422686986,0.8761716999518228,19.852718697890076,2.214699736821225
3.376020699847156,0.9109519345475924,20.5793231316526,2.271680417741127
3.5803525389088833,0.9356570734883434,21.53975709741751,2.3122784049567713
3.7506685212154465,0.9587459000773101,22.435076081621958,2.3563514508047496
3.9383402659418807,0.9865320621366445,23.105015465927142,2.4106788191419923
4.145274432660653,1.0068500431682945,23.70905788751686,2.4351430305354285
4.307934269976869,1.0296650805784746,24.291163627540453,2.4650852486829447
4.503009218594986,1.0524638215851843,24.788480475538073,2.4958954091896572
4.726141338354792,1.0791810858882676,25.14294809989955,2.524858068842609
4.971833081290624,1.1041325993519349,25.66398341888721,2.542426324337817
5.176778680248941,1.1291647394231121,25.988471276335478,2.5620671403628226
5.390510390898907,1.1509748273215052,26.487653334482317,2.5780787512183205
5.558909175861725,1.1731671930702385,27.131556982681577,2.605949765390549
5.74008177222184,1.1955296705545255,26.932894003512402,2.62901240087132
5.958653842079036,1.2206234599273245,27.250566172290927,2.641943896066245
6.234724012396801,1.2385489912774883,27.49077238504447,2.6398092187399715
6.479043447861391,1.2698426025348595,27.87053230203531,2.6646798798867497
6.664180142312297,1.2813088017436713,28.120270461844964,2.6570803544953274
6.895594926819468,1.3181935282898416,28.517705379191124,2.7062128368512375
7.13408147730894,1.329888104273484,28.828906567664237,2.7011205763310095
7.342806321781183,1.3523496808505175,28.911445692711332,2.714162364712795
7.539494124495848,1.3731973799453154,29.18930559910645,2.725365907965142
7.763893129090013,1.391597589029249,29.345313631200284,2.7339337998770414
7.918432879787583,1.4042835214030183,29.327226745474494,2.7285814705906812
8.109902863645221,1.423869138949423,29.380433302320366,2.7374009599557336
8.248442631088357,1.4418379732222202,29.600610082580957,2.7481190568546965
8.565901308739036,1.4698621304325123,29.87704558743206,2.776704621919848
8.692848676558025,1.4831461167496143,30.013700708080492,2.774011430126435
8.950304952640321,1.4911814773114922,30.30231651204909,2.7677772652866315
9.179605292749164,1.5166300040216645,30.29133452450153,2.7854865418381722
9.373697218287159,1.5324274837756284,30.17440207777048,2.779972563016473
9.548348519520076,1.5520579034907138,30.24367325851886,2.785437688982641
9.727429248253687,1.5651366685607673,30.266928093111655,2.784256643153474
9.967999957547091,1.5798900739797146,30.305857997604242,2.782774158531319
10.112165709409723,1.5978906515839437,30.50492908586581,2.790861970053909
10.309006732087152,1.6206946453746824,30.59258943119679,2.8132052391945246
10.58971696691012,1.6247168851944542,30.44440867126401,2.789798872681056
10.863130162887693,1.641709851383938,30.482284422344744,2.780703829411032
11.11063435547336,1.6610017610031225,30.49179328462846,2.779970624081926
11.241507868594145,1.6827843418695765,30.620065445871344,2.792737268389118
11.50285688955713,1.6980884974929358,30.748931699517826,2.799502248825126
11.626469965637606,1.7216041148608083,30.57374661883378,2.8143667887554096
11.92886410077072,1.7364844633883423,30.305977803282516,2.8056704157763304
12.154608373368454,1.7462696179313015,29.985641674858865,2.7781952085837216
12.479680604511518,1.7666219272788894,29.854421795299963,2.768509559349591
12.757530031432358,1.7993499959680879,30.04114363463565,2.784759010550284
12.971039232734277,1.8090550029232195,29.913075245031457,2.773225869635527
13.348070704452923,1.8341315794269943,29.865942278119398,2.7779099164149974
13.642716150597584,1.851093193860043,29.46256997508988,2.760082982009189
13.861386680674629,1.8573008976589132,29.055488896883244,2.7243578526599626
14.102777046780767,1.8910471842713261,28.885423013441894,2.7358780613504297
14.33448632156733,1.8967930156733996,28.76697917445819,2.71299556523204
14.573557272418487,1.9157692533266282,28.709421660902656,2.7128182541545107
14.771507107475571,1.9325414244190358,28.815995226760858,2.7154610336646345
15.054465727820396,1.9496084077589435,28.63015108649666,2.7169261768551674
15.242070970166552,1.9620832720607908,28.40778804335276,2.704267089820715
15.501509498959622,1.9719460509676083,28.047980135917197,2.6853042637364997
15.878573713329525,2.003813963410315,27.762538836892492,2.687403570662253
16.120673482542035,2.024420513178139,27.23243657499488,2.6695781761470547
16.36097131377533,2.041769651017865,27.038574336492168,2.6527733232941335
16.470933565829775,2.048661626899669,26.570609354065013,2.6301451846206922
16.870341733335227,2.0713033634413165,26.35226159547229,2.6233671836820758
17.1918730988386,2.0912521724299244,26.23057897132836,2.6115602587183266
17.618856465188014,2.1031192290600456,26.206004117314077,2.5938022219414716
18.03579466730305,2.1291981615973503,25.967891150521623,2.589425388919716
18.101973617016803,2.1507703989733655,25.421222139073276,2.5780779920964267
18.057030612714062,2.159932526783274,25.07441178525143,2.562877097364465
18.165815676145264,2.14341063633605,24.620404465627015,2.520944568217978
18.340484867709723,2.146731321535363,24.28670955501763,2.4961778775244134
18.54692671668059,2.162199665158395,23.686794852986797,2.4792002530743122
18.598713436740994,2.175817931661871,23.278430736659733,2.459007594985465
18.804324361209797,2.1875824878921435,23.19131137141646,2.4484855725740027
19.04016782280212,2.2037591227906494,22.875230402232212,2.4423196481073726
19.270787046565218,2.2117718331377376,22.45434861957792,2.418372793841711
19.414520961045042,2.221029429718048,21.9022218940026,2.391514134185232
19.64694868769379,2.227027005085402,21.468973930203894,2.3599716068648213
19.81926261233181,2.237578476689041,21.078677577148273,2.3358258067029114
19.975474007974732,2.2533618857544346,20.708909878148653,2.3209372009796523
20.351048194999144,2.2726173263347955,20.349800329293167,2.306136690673959
20.32548042149436,2.2800436194794313,19.839810467381923,2.2785641070767526
20.59681693544463,2.2856789810196054,19.497429276675017,2.252865066832513
20.744186129753796,2.301339247962299,19.06845321467024,2.234919829039346
21.006828416301822,2.29321182109287,18.795479935952958,2.195423902807227
21.260856484449956,2.3166055569310986,18.406331738787788,2.1854940366271918
21.565263565469476,2.331019843484448,18.324089315372607,2.169589319967709
21.812579081262538,2.359847818668033,17.918782624727903,2.1684908836913173
22.26225114528826,2.3716395125630663,17.690494191732714,2.1441543365648705
22.2859991989426,2.3989167709163715,17.264835569414377,2.1364736074537616
22.38409434324597,2.3867257270900133,17.02709999471903,2.1009054414357373
22.865410280771417,2.40071100902044,16.845008920078282,2.0877063466527837
23.074073537557993,2.420134187551871,16.480358783799993,2.0727647572254595
23.226414955605396,2.4307974695957637,16.156752531017112,2.0517954880021123
23.613151307531925,2.4594601037608763,15.75957148590775,2.0424907243565418
23.922783832448882,2.486626564490614,15.404798877959609,2.026193344994135
24.32935159196569,2.4826841321795534,15.184375008743677,1.9882934329827555
24.529466558071054,2.491887993624024,14.850063452268468,1.9646265224887873
24.83472509927413,2.511064697179167,14.566905028171794,1.9492988436917744
25.09732061784876,2.5217803545734863,14.32052029388492,1.928466544353042
25.17485960271289,2.536326319081753,14.115160539505268,1.9165296589879388
24.93153487386806,2.527548802889906,13.830202379972786,1.8948838689867915
25.529134780121343,2.53400554398005,13.61020573301462,1.878083189309313
25.5150167578852,2.555420938658747,13.452288595230456,1.8694881634810738
25.346534389891804,2.54012872357246,13.208229044581659,1.8458797435289067
25.34812767885384,2.5447423492547565,12.95672520832268,1.8355346097215623
25.691315009474565,2.563203094579943,12.75782469420329,1.8282403120056316
25.804587552412997,2.5627595498705613,12.446104363004439,1.8023551525024688
25.898935912640162,2.5808480932528797,12.258229314647988,1.7926158958065839
26.225383093532287,2.592540571332435,12.074457994566929,1.7799721484852407
26.290891859726948,2.5849564406874777,11.827834659137613,1.752538935307051
26.220512735818232,2.5955131335030335,11.632034766136613,1.742328545784851
26.41596430510751,2.5812716482637064,11.49915438796735,1.7182867613255266
26.35407457653368,2.591728598164744,11.317130496949193,1.7111539815160337
26.76029695967655,2.6138002621098284,11.159422854840717,1.7083272286711753
26.808174855825484,2.6132753972327265,11.045290563604382,1.689943423268727
27.154903720352213,2.6355329226436055,10.927179737329878,1.6890406551744892
27.489603581875233,2.648241328747281,10.84813904600524,1.67915438720895
27.703078490680824,2.65975614193339,10.834068511178545,1.673362808806221
27.672194746155828,2.6642086129774385,10.7539364553783,1.6687617976051266
27.35583973020842,2.6462773407804243,10.621235015462556,1.6538549193174792
27.22492883699982,2.6314804698416867,10.55041607144334,1.6431000089056438
27.231109059180397,2.6338238565886534,10.438462632584997,1.640216305128144
27.32207909234774,2.6408534794177214,10.399432595625086,1.637476117366005
27.304796252826975,2.6498811653411014,10.4185829499209,1.640114155418775
27.5463216445501,2.6490616497904385,10.393262186526885,1.636408682432333
27.792957556528222,2.676693376448145,10.161363021761927,1.6386181725267308
27.928672136171386,2.6611569951609644,10.034892051150965,1.6095180248224876
27.96638826703576,2.6690243981526063,9.983583076200945,1.602943619730817
28.18497380803217,2.682790519771736,9.824206689353144,1.5996653361103728
28.408076558400023,2.6839516622407165,9.80370215874308,1.5866571383572916
28.377741265716253,2.6935686618096533,9.706704923643453,1.5839840618541046
28.816954150518455,2.704541714447186,9.718350560550373,1.5813471946264523
28.863818400496317,2.7199190927721166,9.710879228920977,1.5832341615082843
29.10700378187855,2.714463016800672,9.6576244076364,1.5736581665376939
29.440747073363447,2.73462198312605,9.696689686414272,1.576972496304216
29.217773414207826,2.7323026835517488,9.730275532651742,1.5753457256369872
29.615443518964838,2.736347973020376,9.679793787968654,1.5755511693657962
29.610072889193532,2.741315260295193,9.736429463003146,1.5732868781224383
29.641083638953116,2.759129110078731,9.763069831026538,1.5855388402678319
29.922902328238226,2.7466937514318506,9.759971643050747,1.576003639457395
29.857322294574583,2.7485019840128526,9.828964880861948,1.5762638543559064
30.045907187593635,2.7648828927910887,9.903876266194128,1.5891011460583577
