$D^a [mM]$,$D^a [mM]$,$I_{islet}^a\ [pg/islet]$,$I_{islet}^a\ [pg/islet]$
0.5145281422307308,0.13636699587269324,3.0262580308601943,0.294489702837024
0.567733758278696,0.13191423090072754,4.119895245245674,0.32157150411611485
0.6410826814237005,0.13637145907506398,5.180505490621431,0.3651333339554429
0.7314218324034883,0.14510687062938168,6.240481666063372,0.4106710445122844
0.835395801913738,0.15483104456061447,7.260999956505866,0.450778725534699
0.9454710661799377,0.16565932567728275,8.271265019085936,0.4880215148355546
1.0678486613739764,0.17639256724454747,9.280625982121395,0.5212918543122698
1.193516562477746,0.1858495379407625,10.104730615921339,0.5463370770057178
1.3407231238117372,0.1973963305094402,11.021623551657836,0.573187575819532
1.4815694117118812,0.2101893417517436,12.009994744581565,0.6034864978146945
1.6127056197418879,0.21948371271101,12.949369826247914,0.6259964915238792
1.7759168378069656,0.2299261499930768,13.881143742385223,0.6503610508264709
1.9279201695683337,0.23948646240984445,14.675573017943421,0.6690247604403703
2.100957497125327,0.25031864093727724,15.410142367915507,0.6887620126843835
2.2763916882736153,0.26355212247810655,16.22746028380786,0.713287395766082
2.439281664034753,0.2718435110948992,17.201749121341447,0.7273841087330843
2.6064337974682483,0.2824197909324079,17.97037733475234,0.7493568410433264
2.7735475249423063,0.28985134041107485,18.628814773320546,0.7602385152213673
2.9652390527630823,0.3004349051340976,19.35147534987896,0.7775130654336193
3.143804134447152,0.31017688383578446,20.032405589672024,0.7920846574854067
3.3540100586557853,0.3207671909359482,20.5292321646224,0.8067387579646196
3.5453960777388818,0.33126911660257374,21.135323670597142,0.8191832458853723
3.7159842475324303,0.3386378881407773,21.909781548402453,0.8282658542371818
3.969601255379448,0.34808195660497615,22.4228458858718,0.840985098626527
4.1576634398767425,0.3601235716091583,23.171901169737865,0.8574408204416816
4.318628288489796,0.3666548080998111,23.76796671818557,0.8662961093104625
4.518087814481557,0.3744789680512927,24.130677287763934,0.8762168315557607
4.744702876389217,0.38204023031883133,24.75693873992838,0.8822993075327588
4.945963097389742,0.3915463155635111,25.378715759056956,0.8946920277897465
5.153428740707223,0.3994021295154732,25.695476733361904,0.902749129581177
5.4553028976364395,0.4101970534398149,26.001105914533408,0.9115424887965067
5.6486734793035005,0.4219677379637985,26.472518463818766,0.9223606095088993
5.825843014905576,0.4284236710992787,26.784895115470935,0.9271370057932418
6.076227706789209,0.43286220784257934,27.190935456480364,0.926286935750359
6.302914507219594,0.4452973911432578,27.724022059097017,0.9422558988603729
6.515511591275575,0.4524751263338534,28.19431774341757,0.948920355701882
6.800292902939174,0.46222054058353085,28.627739792106127,0.9593664174768384
7.028913506095257,0.4711011570189552,28.816851919360158,0.9651336911831682
7.188388330374184,0.4749361467507581,28.970247900618514,0.9619388951826717
7.488528333226454,0.48179215598041275,28.969203674564866,0.9627060961439657
7.7600203130480425,0.4929316561270711,29.421218800600847,0.969788014443348
7.922539663811592,0.5021077806321905,29.497966602923285,0.9775684189280766
8.15344405432136,0.508878387317278,29.857593736092984,0.9817994690460439
8.335311175928975,0.5129205694011812,30.012036857395568,0.9812837309177317
8.591328368345849,0.5201609072821127,30.08347165426921,0.9847235890034838
8.815485989306875,0.5279238581175287,30.195091310313835,0.9871727600664981
9.096817516668741,0.5368953683664204,30.48952299598417,0.9927758732956815
9.390851325807354,0.5451583945029476,30.765379507745784,0.996914620843351
9.59386748844841,0.5503207100687014,31.072136100097133,0.9970980260185585
9.83630803764967,0.5578060640556112,31.399042362137404,1.0037825624392507
9.940106216131626,0.5625338859435345,31.5317265548152,1.006611769079645
10.179296793048547,0.568687074999665,31.332090563677287,1.0095766541523286
10.347463716838762,0.5715839963501462,31.315396935660793,1.003014204746767
10.686421276777923,0.5787756212009221,31.31301309143175,1.0037116707223084
10.832021534953714,0.5862588619511567,31.330329107294798,1.0047527972810526
10.989351978308294,0.5923033068738663,31.22938919429069,1.0068788289426853
11.287129713219045,0.5953292996459634,31.1190307867386,1.00075444508324
11.419369534347354,0.6068709538964201,31.17224508149787,1.0093202759870419
11.760849018870784,0.6114602598135442,31.032882757631498,1.0064465225461157
12.049405211085618,0.6148758593057908,30.75709784130484,0.9961489740627536
12.38632442323994,0.6245122039911638,30.404906629131723,0.9941752398890397
12.749950588429929,0.6326710909463804,30.18136185282429,0.9884271250954676
12.968008872330428,0.6372743268598023,30.068016263503747,0.9805079344804882
13.212794664033058,0.64631951177274,29.606796953436373,0.9810355112241562
13.47410062355794,0.6542280739312782,29.566462245807653,0.9791074607990621
13.703466052214594,0.6631282720210598,29.377321702231296,0.9811599484244092
13.777505071416233,0.6642805001998057,29.239983102994117,0.973900304381561
13.951578532024172,0.6696291749483214,28.75016288412901,0.9727076444273017
14.104559109049868,0.6705432522801282,28.481000066686452,0.9622042699654254
14.308480348841632,0.6743804495322226,28.377290550603764,0.9580526797159624
14.761710712169045,0.6830681628022205,28.103706585276008,0.9573945628049965
15.182139748568407,0.6936574686907184,27.861483547671025,0.9543171375193117
15.417037534287891,0.7002660861325473,27.664814356578827,0.9484219532377222
15.702739256508737,0.7056124809499633,27.244561041935903,0.9423508343824825
15.750367491807186,0.7083931377466057,27.10890670633641,0.9351251867191863
16.159267840852962,0.7143988312446897,26.785302363152642,0.9330422898086088
16.38915882421643,0.7228691339153421,26.41560748162461,0.9293314778486276
16.603646044302394,0.7259281291910613,26.361684391482413,0.9222212366646754
16.91522902238008,0.7326130765302175,26.029982439010375,0.9203874775022991
17.055340725516807,0.7333043876837497,25.473180401723575,0.9077836711831925
17.306293089632135,0.7430043493597057,25.117252123529592,0.9064204331027087
17.42119839749899,0.747307511411926,24.704040386406966,0.8996030690332862
17.664685785374317,0.7500190569378586,24.395820407343336,0.8916368095798148
17.810257861458755,0.7600319878842033,23.9701494368068,0.8919412405711077
17.91154900288722,0.7601111681010095,23.77949060328468,0.8825875001877548
17.93927438991509,0.7612408635963148,23.284639869155814,0.8759333285152704
18.14679912720424,0.7651643778907689,23.16173411293286,0.8717956654009598
18.202565378958113,0.7649245609243468,22.722107581420325,0.8631565368961372
18.48765355466044,0.7639687180481706,22.249459854790043,0.8503890367539859
18.774082223549744,0.7713188433192998,21.981796331892326,0.8451033264467103
19.14526234005044,0.7813719937924383,21.6880480923805,0.8433125133864987
19.29271814501283,0.785547573494241,21.397163843956456,0.8359763962404119
19.495169185175047,0.7918050254430304,21.10448071189649,0.8328709859524732
19.679703202102466,0.7937995129506229,20.684407463694633,0.824120152676256
19.712979148494433,0.7971213735231809,20.272262263702164,0.8168731060836794
19.91053012000137,0.7967056790798288,20.032914510200502,0.8073292079712617
20.13210441760203,0.7970428626619142,19.898916086838646,0.7994549760439371
20.303069837773865,0.8078972025566273,19.667298957179796,0.8027104393278822
20.50665874314911,0.8105877615153569,19.36917755576537,0.7965858060143197
20.79203761460966,0.8155316604182696,19.139464933849553,0.7914925990714494
20.826340186885915,0.8170807694707051,18.683917542412892,0.7829056516169998
20.85110317627462,0.8179594538544964,18.37598931848536,0.7749236684533514
21.133883335845496,0.8273669065928554,17.935043217956167,0.7737026170894922
21.21192344729629,0.82533081666668,17.711208892330184,0.7610701848511666
21.367066801686295,0.8283903362258311,17.42994439667604,0.7560912420286126
21.242100373736875,0.8274630267491965,17.084926721133673,0.7479741628194864
21.426250052331618,0.8292596826975902,16.74707153869749,0.7419985596368252
21.641406702038037,0.8327074413493032,16.58174307848938,0.7361729063782835
22.00680993777642,0.8382319610011045,16.390489877506024,0.7323059285159824
22.444881635739087,0.8412516462187393,16.2571231815762,0.7248699225647353
22.526956482746066,0.8493182276943316,15.97895426661382,0.7227288628791247
22.828258754158757,0.8572078943552967,15.718697713321802,0.7204051573859535
23.171702421368195,0.8610325614574557,15.310512954745809,0.7115870676568881
23.293464025585557,0.864678732295479,15.03796426955903,0.70285259670115
23.430289577098417,0.8679211036998674,14.770479285621501,0.6967853062725577
23.732978222713243,0.8729335663152542,14.648573169682463,0.692810951135201
23.940143453697097,0.8726307521528373,14.21024293053538,0.6828279669175623
24.028782665633194,0.8771263903434743,13.993984061837153,0.6762386996918536
24.086326943657447,0.8798431732325244,13.780543384653656,0.6715598900832241
24.008391983980566,0.8826042067876422,13.628138109932829,0.6688754657091553
23.963695452172693,0.8793462290675883,13.462623195630846,0.6631869991329644
24.13994211781203,0.8776290710998071,13.124440869082655,0.6556615042687731
24.157034468886007,0.8786431493550699,12.860027718946178,0.6478976428221324
24.344880051949062,0.8851107890098491,12.493003584521846,0.643670122055886
24.416692666872482,0.8845326564019396,12.132179777658191,0.6325022009194419
24.23010235705317,0.8856770258150618,11.897750458378866,0.6256263170337412
24.407060547962637,0.8849577491363765,11.662588968025512,0.6190267514661393
24.33353917544972,0.8877398233321041,11.453496301646656,0.6143807340880932
24.562252722127102,0.8875933766406914,11.123232037913022,0.6066169812749557
24.616421091789903,0.8925065816935321,10.860149436397611,0.6004025786597297
24.763889581448627,0.8939066434474526,10.446208700147144,0.5911486475644302
24.993990470325205,0.8924572462343157,10.186630835494071,0.5786769466083096
25.62792056799327,0.8986924106605179,9.993637841280172,0.5714732772668272
25.845860035250986,0.9107384591763825,9.875795515466683,0.5693578078368787
26.01998714084373,0.9132686759116794,9.671231056095012,0.5638019688172458
25.998672099313083,0.9180995519108013,9.500621912261591,0.5602722728037197
26.30947837999176,0.9149497852717505,9.247217329040218,0.5509950029707601
26.501144884344445,0.919819054827921,9.01195981852884,0.5444007587873011
26.809091871834724,0.9244015923527167,8.887587226876464,0.5388722428489237
26.610000688586354,0.9218832939707989,8.651901457977777,0.5311237554844435
26.688047000175978,0.9257319796430982,8.481037400138515,0.5276679915072481
27.012038478434444,0.9285878662088887,8.441172180216162,0.5239201278056659
27.518289849903077,0.9313050194774642,8.257279246480262,0.5184141383355874
27.33829397096297,0.9409784110738951,8.14559625388659,0.517296612103667
27.550702174262476,0.9418639543348497,7.926689550119755,0.5124268425617281
27.637039342935502,0.9399466335050949,7.853083467933573,0.5052849667949996
27.554758520426812,0.9375373938066139,7.799296417912985,0.5013248496191675
27.71800648928185,0.9397846614752282,7.7690553938192215,0.500699782221146
28.035191092231486,0.9472804230636779,7.660916610020519,0.5007260534628459
28.43036063794657,0.951225759866107,7.569847571959282,0.4966751497303889
28.541959660487112,0.9570875001172856,7.487955859270809,0.4944536868203454
28.787578351613295,0.9616993944221787,7.364804122207449,0.49191795503414104
28.758561756839203,0.9564907115648164,7.2829677120135905,0.4847729718203655
28.80554477991421,0.968052010006745,7.28018563550487,0.48865517924557283
29.09932629989863,0.96493727816772,7.275509921229217,0.48544858080385006
29.28424688332998,0.9714595168883158,7.2978737663830975,0.4869701911014306
29.61082261456119,0.9723044124243968,7.32120196426486,0.4859368908547884
29.48025177865315,0.9735696716238385,7.300850394316341,0.4857018785303611
29.584436223647778,0.9739831482595396,7.224677867729285,0.48460097641609007
29.72538611481714,0.9731756676548655,7.260803583486533,0.4824792020931814
