$D^a [mM]$,$D^a [mM]$,$I_{islet}^a\ [pg/islet]$,$I_{islet}^a\ [pg/islet]$
0.5172633192680353,0.4428802672603679,3.040298203765447,0.8928573600544562
0.5646366295625583,0.5070321560450077,4.081641393937371,1.2062338425336638
0.6338323487121443,0.5384063001093374,5.065358369189886,1.4289710838351943
0.7164499343820148,0.5738570544359449,6.066763469730687,1.614347677356408
0.8215892260630597,0.6088195212080431,7.0761773056019495,1.763322635206134
0.9395912946542804,0.6548767888022466,8.091628871238074,1.9168836582860982
1.067794998128423,0.6980640502046369,9.05169893196913,2.042860157523774
1.196675516824262,0.7401696381421713,10.043170715746559,2.1553806115647234
1.3276631517836348,0.7861498921835423,11.011818204774576,2.278134370955676
1.4602790881803132,0.8251889767355034,12.034539018965033,2.380440246129511
1.598338731206669,0.8660767237956483,12.969694393846783,2.486380171174488
1.7385983957913096,0.9067185610638078,13.882701063622081,2.5841694842919436
1.9030315768495965,0.9472805379341636,14.690085626736302,2.6696454030649295
2.076786955134777,0.9893531934942417,15.433873080677095,2.741614484994052
2.246231074695828,1.0358378863446263,16.433489585412172,2.8287105308399845
2.426168863062478,1.0777638271102679,17.108117688659707,2.905951036169121
2.6037681827115047,1.1113808676555406,17.818884452764134,2.9479962230870487
2.7750568031008944,1.1578113172110258,18.560139596432073,3.0288714061948614
2.970729110842821,1.1919113643746133,19.324695457079645,3.078042119546722
3.1498666841385052,1.2328250356390793,20.00297975882616,3.142696470211715
3.351697202565407,1.274965977723616,20.66338493767893,3.207201508102214
3.569841074238536,1.3115922528407735,21.649400192413992,3.259440540209921
3.771271820596376,1.3503926883119601,22.233123492451544,3.319143721697375
3.929191107722627,1.3874881004451545,22.68635550698269,3.3687050273757384
4.084432854011309,1.4240277731898425,23.367183961214412,3.427898629290721
4.327525975100134,1.4537171651017289,23.717596156500974,3.4591251702633095
4.491689663278358,1.4909864627330536,24.163567153427124,3.4936420738358955
4.661519676071036,1.529538535822665,24.836986212699323,3.5531358255784196
4.797824649048743,1.5391054114026113,25.15345854085549,3.551948957670256
4.93383642194455,1.5682807208781417,25.765736893816864,3.5991060662676273
5.145703285068803,1.6003641253684746,26.186870714687107,3.6486287284331618
5.3867630643999425,1.6309144051183875,26.585674089163554,3.670498149538058
5.587693390854188,1.6557653175697606,26.929183446614843,3.67573075148043
5.878577797493253,1.7034733111854379,27.52878798379589,3.7322806435792333
6.069935730038312,1.7398303066195229,28.12961289405592,3.7711095270294064
6.284482802972748,1.770387947533472,28.541241223619775,3.807323603065168
6.510694992819911,1.7936014737789512,28.92009762275223,3.8182850663795884
6.659638983934702,1.817131003111902,29.504730928047902,3.840192939209938
6.895903352720888,1.8480722994339114,29.808903415183647,3.8811413643908366
7.0611314528466576,1.886161404727454,30.12304585044078,3.9246000268998573
7.29775463894638,1.9127247935099352,30.36130780001411,3.9432108973536035
7.484617198962214,1.9198673189973976,30.6684293916633,3.9176223093565783
7.699468291105267,1.967065793284541,30.87100115669143,3.97736982215356
7.9003468797321705,1.9889539064084738,31.433678433375928,3.9892277159021083
8.129586706512852,2.014685925625979,31.641919179456323,4.012267822975758
8.409963860883261,2.0464415385351598,31.896934154420055,4.03018410785758
8.673141881960447,2.079316575598962,31.969796825854882,4.041394622813925
8.81884040473168,2.1074582239251467,32.24861366768345,4.054374242871324
9.031666836856747,2.1224895173692144,32.62272845994921,4.059676995073828
9.292367957168233,2.1559802291356607,32.384667807371564,4.080989422553979
9.614964446437014,2.1831127046787926,32.42586128099644,4.065396770520756
9.897963932831122,2.2304565039074546,32.17756875476881,4.083362503931377
10.08387731638902,2.245105132706392,32.38450280306818,4.0545030008276735
10.477039440367552,2.2918957281592998,32.311197185874995,4.087619311416099
10.624742973052756,2.312296825552071,32.205705021124956,4.063435587102144
10.940574286179556,2.3363980615295303,32.37771221413091,4.06160826796505
11.167726584296526,2.3570384751201643,32.32755522591665,4.050869055422202
11.459391215997549,2.3868176597871655,32.03380357801865,4.047036579065724
11.646269423450136,2.4232609937172493,31.99713954458798,4.0533704631461855
11.938985280586126,2.4381057014266676,31.805604460108626,4.029736743400105
12.312268322844897,2.4802899164661696,31.809324608110135,4.03905269297897
12.461654576656159,2.5135953462141147,31.646342341344027,4.0414588152877045
12.797558172919459,2.524605695036875,31.226649393917086,4.004580711749939
13.057486922038096,2.5663427599674686,31.46681264503865,4.015091753510035
13.262687204458242,2.5804146829491943,31.242446730645582,3.999723628824489
13.626356818414656,2.6138533813566998,31.224193314897793,4.0032486179070945
13.805335719312358,2.623225906043197,31.076795619878975,3.9708712186218666
14.226685507845154,2.660132764014128,30.79978189967214,3.973520691373622
14.432250015171737,2.6924824591681453,30.622437300359156,3.961856019311699
14.657832420774735,2.7396023985338056,30.291838171240737,3.983416793033278
14.83482375350346,2.7502922368443357,29.879100498066823,3.947552234829904
15.107237813172572,2.742372511572379,29.547788066539542,3.882972778674316
15.213451514386756,2.7720431863210884,29.252031996908446,3.877726768679668
15.426581781108236,2.796789055747149,28.997895228160843,3.8729557765249303
15.784860157243177,2.8066602749727507,28.84972925577904,3.8393805330068917
15.912705931434944,2.844383238359809,28.686902823527433,3.848627536292369
16.278885884470927,2.850963388236146,28.31626002834839,3.812498704163641
16.530468716307453,2.8858962250583367,27.79107937845375,3.795725288686888
16.65660949608776,2.9187700933641305,27.608146609078283,3.788670709877402
16.773548596366677,2.9072831522801605,27.402814400614474,3.7432052572451124
16.83486300469454,2.9256041523440888,26.91988925944147,3.7345241907729134
17.00453361885762,2.928954743143848,26.7437613427573,3.7033507995849653
17.160268022545214,2.958350309820921,26.769807127934563,3.7151230777878816
17.373842320398097,2.97212405228139,26.360039649337228,3.701769925136747
17.443504542311295,2.9964477725165737,26.08704199181158,3.6930102532993194
17.79668543638308,2.9860712218502456,25.750260266650525,3.63880726918004
17.889550371668225,3.010645876713355,25.55499293585119,3.62563462610446
18.16791282022509,3.0374784386735607,25.0533766284841,3.61627434680123
18.40266650081798,3.0650018273547097,24.572150448731577,3.5905457779874017
18.49155050633429,3.062638546346329,24.317756394383743,3.541640765834433
18.63600008096653,3.085551110265729,23.58150692696326,3.5230224349808608
18.983609756863014,3.1110295589218775,23.28659636516353,3.492453196594505
19.15731973528258,3.1136371786429313,22.954207497060548,3.4457238276325532
19.33775188200784,3.1320544154622327,22.843357647508338,3.43047529877094
19.51423225549819,3.1280265589364786,22.531934341127023,3.39458321015064
19.68717747020256,3.15592500498799,22.228684683643152,3.38750646567545
19.93994270345768,3.175474962133029,21.857732040933893,3.3660043000240494
20.06296354611884,3.188319911981241,21.437433837924065,3.333672308868874
20.283765198673336,3.2166903095343624,21.149904202833174,3.3209066551461226
20.444866153448658,3.2203584559055916,21.00254134577162,3.2899229512342862
20.69078155171996,3.237829620364632,20.724995948522682,3.2753856114564504
21.018107919600297,3.2650930291813536,20.22574160525179,3.253601750674874
21.02881673083986,3.2859836556477577,20.017749797450218,3.229929063819346
21.31246859617708,3.2785250240486805,19.67974978812625,3.189076482047139
21.40228847995764,3.319659652757217,19.13119330152177,3.1816176096201705
21.64655234148403,3.3112526839240193,18.834954290733414,3.126038968320399
21.738739477842994,3.3188191733379373,18.442062903253852,3.0916697080438538
21.979098706590992,3.3455632395061934,18.207638370893488,3.0780306489928897
22.045257901569652,3.348267399610774,17.83910863769077,3.0440223410749603
22.276752355042813,3.3635076076757056,17.265512148008654,3.0108548331162965
22.423301762441096,3.369486224796594,17.17181782955107,2.97215250053769
22.475185013418134,3.38167192655289,16.83912870602339,2.9557873591156576
22.736470447938153,3.392765923356667,16.421887772674875,2.925591945039397
22.862266687773197,3.4194767442999923,16.301254787314104,2.9105725824388085
23.123378474198535,3.408593207365314,15.956905799059513,2.8686569268401767
23.11708978609909,3.433198951473135,15.852626833094472,2.85964987426456
23.433184038384173,3.4389248586306373,15.720754080085033,2.8434555096746594
23.696346784498214,3.468201536532309,15.406579371315608,2.8327447910966113
23.712619620413644,3.496036367429524,15.113182531863634,2.81869062857974
23.98544041632603,3.4868404601475858,14.863272618509667,2.777613726940847
24.20022609521819,3.5171782568732324,14.64671365672989,2.766011686324284
24.519067177728274,3.543278451290031,14.44230311868865,2.751457117455719
24.52753769862558,3.5514634579188775,14.073694586459789,2.7214961702565508
24.562362626832137,3.555259488001245,13.75862811759599,2.6900276740300186
24.493664783182975,3.5445729627113467,13.603737931517479,2.657808718507743
24.517109670779583,3.5417398254347834,13.489020392906408,2.6420335952813208
24.372755051177755,3.5338491800018375,13.25485591933398,2.6225854192125433
24.611971870249555,3.5499689822144913,13.167297605141236,2.617108006010222
24.718719430348933,3.549103690934019,12.849508385925786,2.5894723306136487
24.869555000742025,3.5474551450380334,12.540786948662632,2.5519753059076624
25.175925826223416,3.566658390935793,12.31539544294484,2.527469504179627
25.218214423800536,3.5727455476968077,12.072358077131097,2.497948126726904
25.754658935742004,3.584810142950316,11.82029115878457,2.4684460463131894
25.841296838525174,3.6145982004316504,11.64244868404385,2.450506913366213
26.43832197465837,3.639556389171461,11.523928851336109,2.435231156448258
26.542408924099952,3.686088530283173,11.449646282163188,2.4378926209328635
26.676980324484433,3.671504032300932,11.272133102315005,2.408505617507081
26.875208837342825,3.6955676295169124,11.06447779116857,2.3976493898841293
27.108497405584476,3.708025452959951,10.818672687919372,2.3728627917206553
27.200446376272982,3.7237174676141915,10.730495116356781,2.3557790952030997
27.457733404400415,3.7235892514470663,10.578153919255431,2.3344778657345837
27.83522714158854,3.7456338992385243,10.489077186821435,2.3221596218715574
27.82232653102437,3.7572612080178835,10.488007576080067,2.3138630764344112
28.183507500154423,3.7921039773918856,10.401030301573085,2.323496024278436
28.04199487216629,3.79984175684102,10.274217166445542,2.3119489595814042
28.16694608416963,3.779186492884332,10.174861157557965,2.2867832508734494
28.35179693371674,3.7735252195247164,10.067586394012396,2.2663810956614587
28.481711032658254,3.7924650818607266,10.00852013671294,2.2616124709545153
28.675723631759464,3.8182353852255826,10.025785292533905,2.2667789356668555
28.839103248669364,3.8125560451285585,10.034452648728031,2.257053134833229
29.31001316828534,3.8361871700991212,9.988110924680058,2.258004516176305
29.363652477517856,3.874372329792949,9.988388914288766,2.267016205667407
29.515130445633567,3.8725161303350246,10.148639145735027,2.267809623405851
29.551582709104146,3.891794500618114,10.2306471361137,2.2879482331614436
29.548605928947495,3.878076599780729,10.219339987635891,2.2843299456904202
29.71313767158515,3.887626556870912,10.22616139047244,2.287686519444989
29.70132649803546,3.883507957507566,10.429558009807474,2.2915799112940163
29.786543365069683,3.8779589521746938,10.516809236996288,2.302246000893915
29.782736001261508,3.893812935077367,10.601969204199404,2.32028380443418
30.115027882295728,3.8851265317904313,10.752695878917812,2.3218854728412275
