$D^a [mM]$,$D^a [mM]$,$I_{islet}^a\ [pg/islet]$,$I_{islet}^a\ [pg/islet]$
0.5169959853737534,1.1488378293172583,3.038900928794823,2.298174137489149
0.5578338179228715,1.4130449817596764,4.073067508657422,3.3439357058113552
0.6226753482582771,1.5114130992810975,5.129935739150981,4.024388818057174
0.6992815571783236,1.5950076140313427,6.138952923636588,4.542439113605204
0.7930636979695426,1.6898535540502826,7.168246572389114,4.982453130715535
0.9006288759572751,1.808926605425245,8.17885589399126,5.4175962018150905
1.0151538209608155,1.929113519509418,9.279480113401725,5.8138165710929055
1.1532093515779787,2.038362547856943,10.280560264467205,6.135141659287238
1.2910690952497075,2.185358430458482,11.277240255094641,6.517214212101493
1.4416461551029367,2.3016653641475786,12.241195651265588,6.7868135889325565
1.6012634102531733,2.4295278288030824,13.013362177926231,7.047433361976384
1.7474162096423456,2.5355530261170443,13.853243415788597,7.227361156259624
1.8878309734998642,2.669874999170571,14.694851819283441,7.520651305333107
2.0434287770626245,2.774095423372438,15.467663702200966,7.725383209914379
2.195629280372625,2.8915228036630047,16.3573999100327,7.9618404998685595
2.353679058298549,2.9977328549183144,17.229131052006757,8.182125808357512
2.5153899112786084,3.11915704007074,18.041582024789697,8.43495551478786
2.672953260084548,3.2154831107875195,18.61839199251157,8.594504449556062
2.860295886110814,3.314684403758707,19.368870802954003,8.73521189092088
3.083292368781,3.423732655390321,20.17902177208668,8.885675456131164
3.2786605601819,3.556238020681629,20.92809070495474,9.092197082133925
3.458885116809971,3.6687999066473176,21.70110830444134,9.272608036604
3.642965786581349,3.7576304988236746,22.447128319758242,9.409695337500015
3.8241548702101764,3.8515470170033503,23.271138718257156,9.567660525160758
4.025328602261343,3.9569382218069267,23.872126710754923,9.742184875895267
4.23839568162776,4.059120609414433,24.41063323426643,9.864809057120576
4.393908419528268,4.159494333250392,24.968058068813725,9.994015525444654
4.6234897103886325,4.253718610712599,25.41831462772744,10.106767154551173
4.852357918304907,4.33508482058487,26.088212713587012,10.158897068855573
5.078745934483986,4.459010670570484,26.321656234535777,10.30277829955568
5.370486100060405,4.5542831640867645,27.046541904884215,10.3511051493378
5.585911764571198,4.636095418937361,27.37463840086377,10.387617493698986
5.762946253174027,4.764955569021814,27.544771984456958,10.535845975886605
5.960271707034386,4.839816591310366,28.156061293572087,10.591434841554126
6.125673899976208,4.898341644732557,28.527084858967022,10.645400031136255
6.3667017509329344,5.046737367090123,29.089028103557983,10.880201354137238
6.595289144639337,5.117290287360163,29.315905195228673,10.912648876203118
6.888663122551638,5.219933821008789,29.76240919663428,10.981668112516207
7.12857793293126,5.275419483278327,30.25760903543585,10.964729680594905
7.318057829669704,5.372606384538737,30.344193116125243,11.052143539542648
7.4857619141788305,5.436485439559151,30.907106103115687,11.094476193675089
7.729507144803466,5.516693047439329,30.908907987132217,11.166831235373465
7.893502475373766,5.621855117221952,31.16128636851101,11.252202112276793
8.050852596434208,5.679642655295844,31.35711020843264,11.285243615847124
8.283395838873338,5.720470169927924,31.62052633419678,11.274406077837494
8.55585383340828,5.793323066782046,32.14744231908913,11.316006222992117
8.783379379521639,5.886725383593438,32.36886946577096,11.399011897553148
9.093505623243436,6.001478119971758,32.60207440507194,11.49288725916487
9.329889542820508,6.078824313952838,32.9158932139469,11.510780057516826
9.566301681937539,6.180417156743261,33.017528051636376,11.591498678329978
9.857458967166696,6.280889478747732,33.03136626867564,11.636869285317582
10.07082872466822,6.3544297668841,33.16324108879846,11.631005611877882
10.360849710485033,6.404829757562274,32.91748831055284,11.575277520031207
10.671773821356123,6.512593867353259,33.1514943985973,11.598731057591365
10.827247706160744,6.603015714792228,33.36922868062376,11.654483410420614
11.013388388836878,6.599187953938555,33.643133598335595,11.590759429504248
11.238530033591287,6.70840530635447,33.73584907886564,11.711033275306706
11.374341162861569,6.753802143304687,33.724875330399215,11.703290835419931
11.573950454993513,6.842603401067068,33.85716482834704,11.779332737985987
11.759565914801323,6.874102239541825,33.940192922730475,11.754065828634822
12.161735017267612,6.968511730326258,33.8954417065311,11.787619232384664
12.472510306653371,7.063762280873377,33.750381721216726,11.765603227473795
12.768119333502648,7.098466406772658,33.437833460533376,11.641345056492451
13.098591916219307,7.225499626223137,33.25811135340163,11.663277808494703
13.262356581108847,7.299871984804822,33.00880262534183,11.625619796702754
13.439245833597008,7.334405170341178,33.03028881451292,11.574496273951882
13.683296032219287,7.430398350378954,33.1110735693325,11.640988168790678
13.963702623605034,7.456869169942034,32.87588792134845,11.56635870856578
14.163666582622799,7.547816489595881,32.97118453222736,11.589652891068429
14.528479528647981,7.588295705368931,33.074333760915145,11.553945298575153
14.845780172914084,7.7259524710173935,32.740690493080365,11.61801223338257
14.879299673334295,7.783071857592991,32.83792539639493,11.595114605418672
15.100431656354859,7.774524801584331,32.488680016881204,11.512811932622457
15.317391355323096,7.88751510452222,32.468221024333936,11.567080240442285
15.523106158366701,7.888333299196106,32.11431499273124,11.4578676501952
15.724320779878571,7.97324338642196,32.10312085005316,11.469938971514116
16.03045433154336,8.033974036270505,31.462042933886206,11.419639412694272
16.32444949113312,8.042158228978396,31.271724792240065,11.251666124131765
16.66156456055586,8.156759749388048,30.64960072581405,11.234480451793052
16.866777855091893,8.231383861473397,30.332484570890436,11.154596419291744
17.05885883584661,8.28665555717655,29.913856557085662,11.089352288247232
17.23229545228692,8.357066991901426,29.50377979028488,11.046140204542244
17.506008541770093,8.381817588210493,29.84372291237858,10.987064478845829
17.733990008141035,8.4015034357793,29.54648203634809,10.940251582711394
18.338930917969737,8.513930230815477,29.3223354018265,10.930112576071394
18.526940554485535,8.6212215037377,29.26815872724917,10.912428797565445
18.632536275155125,8.707604085823016,29.012128021987866,10.937432023118122
18.678372981160674,8.701243040679886,28.890701721475047,10.86526684490635
18.805523811270966,8.708023125966895,28.52797962885482,10.807722047137403
18.946152458502176,8.751399963512894,28.47553197889501,10.783214222086842
19.108262144790917,8.818241461602232,28.211190818342175,10.793418761751457
19.395702487828224,8.819424220305768,28.22941670738638,10.709277373499633
19.31761085557384,8.909244868337808,28.158014063731194,10.772333632427497
19.655525175237003,8.899467286329147,28.12416108404468,10.719423899511831
19.940442732328258,8.951171601266855,27.752778668372706,10.672284185040589
20.2072233006925,9.017810713264051,27.566132809694857,10.624793784621833
20.450455332937214,9.071144394201449,27.30628001590115,10.575199503721397
20.62342096923386,9.108264519906406,26.699499777182645,10.486333193680947
20.87296567758663,9.113115594749186,26.629758157736298,10.36761687911097
21.23572957198568,9.212513459990227,26.692097931966476,10.396728141126118
21.617171779485542,9.295489048012453,26.440792509638698,10.386439523907825
21.927395916206205,9.374963035871177,26.1750145882467,10.344411624540202
22.312465862531617,9.501004820519059,25.93159029987503,10.351147854722372
22.749089502387495,9.528964761240049,25.564288403844166,10.229861979404623
23.01982968962226,9.647201885965226,25.448205789520582,10.221231788026863
23.150336783379505,9.658309359087127,25.190654736794244,10.14267525656577
23.275102001018972,9.674836775527666,25.22848934939558,10.101868385862327
23.418652768994036,9.736412971128063,24.91318496739732,10.111760691022585
23.483558636347954,9.79189597106899,24.900436479644263,10.110334577775655
23.628771750086962,9.735828459536506,25.106746653987138,10.04041329926259
24.17826119023722,9.82734664230693,25.06046409431877,10.088818589621734
24.352129548797443,9.850971561656088,25.144582759555657,10.040288916823542
24.484078819215195,9.986956134029251,25.224201780591436,10.154651587151278
24.804684865088987,9.98093328285373,25.149031307501783,10.107550403808041
24.92902762297161,10.084562882397192,25.1214365347522,10.156578490966114
25.141153521636596,10.084862227632977,25.0873205335239,10.114568859083056
25.339482327391053,10.07026194681386,25.26611138152458,10.069285274432284
25.300962543533263,10.127411233583407,24.97604327233353,10.10040296832849
25.604813945996447,10.206322277728384,24.927348812537904,10.12398825745857
25.583138060137053,10.167487187555858,24.949374172298516,10.047562011430246
25.78016279859422,10.244524367634344,24.454447418872757,10.068655424807444
26.24873263850228,10.207274866635531,24.347655006887265,9.914973304050509
26.361111379098848,10.325868953509904,24.22337060871546,9.943271626241366
26.2850432965049,10.341713103651005,24.06171124307408,9.916397486664046
26.623675874734452,10.342852933770137,23.919450549471645,9.86653895120593
26.82313311303656,10.378326669875973,23.60235046356073,9.809784147646434
27.057885128714155,10.443922165444912,23.54723617275293,9.78961903533452
27.24817689691432,10.485043964975825,23.52666131123704,9.775602491623205
27.39356822470372,10.517834374951141,23.495961284517833,9.767733279993752
27.78702320926828,10.629221945264478,23.712374924519903,9.840351916255853
27.92756970440993,10.586228874624533,23.834052635984325,9.784251808997757
27.974202580789623,10.615850026710692,23.76668453667235,9.800744950278082
28.086855690693667,10.643874726230319,23.997325255187757,9.82556854523949
27.777458072266718,10.679412259625229,23.927751015317856,9.886688596975485
28.034366763863524,10.567263539095759,24.05855368946749,9.798299093483799
28.208275551883254,10.603424100083002,23.9818278230913,9.807751915745579
28.46255775613611,10.755826968983671,24.193039554549884,9.922797279137212
28.845759631963425,10.733370675042744,24.356845525942468,9.88447054245246
28.976068367485997,10.838498413487086,24.55685235481266,9.970715759748375
29.35082000055778,10.88555604807164,24.7017326439767,10.006716364758267
29.537187195114186,10.890043763913287,24.657558779635632,9.97729711954572
29.966529884115616,10.93643557476998,24.853124443823837,9.982956686247835
29.75696153086176,10.943328737409832,25.126263851210595,10.004477180528749
30.21218322898696,11.047603843322076,24.94743997348931,10.099008806301496
30.71396991675301,11.049377887928609,25.183084519539612,10.033795229261731
31.020354089705297,11.13815150080988,25.287354452743575,10.076252113347195
31.282156304651377,11.289919629909651,25.580606655388262,10.200433211515996
31.532844350938802,11.318372490528049,25.70509138651739,10.22463774791266
31.51369256452558,11.282353351481412,25.788790525210704,10.192417109687973
32.086004165285736,11.32936729572135,26.267426385670596,10.244519006574244
32.207884901118625,11.35769367196005,26.66686729227287,10.295538173047438
32.18086585389097,11.43950516120823,26.997883547813007,10.427243905244975
32.408499432460985,11.40042258926928,27.098925844359396,10.424431051950789
32.196890283211275,11.38596926014067,27.27917872748447,10.435784061135479
32.201785975535756,11.447081727908838,27.89207734429925,10.573331808627337
32.38675301381235,11.492603487123217,28.25472088394316,10.69631044574058
32.76658388568508,11.51282267006616,28.80092985545735,10.760430868833405
33.02474780268813,11.559730655663895,29.313501101204782,10.850257773091496
33.25738513160082,11.574705145226838,29.458363185477005,10.89054576456712
33.717201317376144,11.592954838672286,30.141925546959985,10.9264888639111
