$D^a [mM]$,$D^a [mM]$,$I_{islet}^a\ [pg/islet]$,$I_{islet}^a\ [pg/islet]$
0.5178907671928219,0.18601630267249783,3.0509685277775596,0.39465188238597554
0.5677074220974624,0.18497789441792514,4.115956298239599,0.4485541890871134
0.642676964860795,0.1928454614045478,5.154947366916342,0.5149926137939006
0.735622499881781,0.20529526188564826,6.207599132692295,0.5784617249191955
0.8467298957364756,0.21999440950912402,7.230540886885601,0.6361404096865436
0.9611429377219248,0.2335465611531229,8.215815386096374,0.6813614448865719
1.0772911413999338,0.24902436157269625,9.174065709061521,0.7279378637773771
1.2085732980961938,0.26580734329785427,10.083055788151793,0.7740369343922269
1.3434338999015003,0.2799696590111319,11.00293126717253,0.8083255573620153
1.489666566918899,0.29530946198948116,11.9748315029716,0.8449524247898187
1.6502162724470093,0.3083367963189537,13.079717213330795,0.8749088692940252
1.8032080083120434,0.3254036456328217,13.978031047200584,0.9155312075919837
1.9721874043064045,0.34358942044465307,14.89779022115278,0.9557538393613604
2.128771188396039,0.35821413021037285,15.877454726128166,0.9862163423395885
2.2853402465109514,0.3725090153899197,16.795599982080283,1.018173358268735
2.463057640010362,0.38602938419961585,17.599774555418275,1.0447116277185806
2.635118179223416,0.39611584358901186,18.45057477493893,1.0592102176226972
2.8260996224043327,0.4133417660302604,19.249954426964525,1.0923784437984407
3.0214143584051127,0.42616005728647505,19.896137849245314,1.1097476071391759
3.188260463409937,0.4404613141915978,20.605687491720037,1.1313253017161398
3.3683429197356323,0.449215901206184,21.30771951008574,1.141646585478426
3.5729052520601634,0.4675157708479095,21.915972316310892,1.1734594452988245
3.765105088875808,0.4813841170890025,22.56471265334483,1.1919476676384073
4.004942605401016,0.4970351755574902,23.268752266634586,1.2142131997417671
4.194046992996348,0.5079378418299689,23.789132427688216,1.223708697561032
4.41693565108174,0.5221432710098605,24.24347956224893,1.2405063098063398
4.667601570523536,0.5392517586652066,24.96589670178951,1.2622904845307024
4.889608753710514,0.5511858181090719,25.466571035054038,1.2730896480691591
5.096330763451968,0.5638736936647205,25.837596559599298,1.285104563087279
5.3428614609511085,0.5709684426189197,26.323434779934278,1.283336266242238
5.501437900673883,0.585418120086538,26.81123739533015,1.301611997511505
5.687880838371019,0.5976554455086537,27.26107235053269,1.3190263741655595
5.965447109904405,0.6097909382039426,27.97914332317581,1.333495119449968
6.2376345442548216,0.623993826530067,28.22252626361506,1.346692529697186
6.450879356760189,0.6351322064611611,28.80819047951326,1.3530259277036123
6.5947202824691225,0.6424828780286167,29.061447784025177,1.3584417868006378
6.8530939635824275,0.6534208420005498,29.359744796979026,1.3683047385176081
7.167233455778255,0.6673844645526464,29.799656448296393,1.378377639558096
7.407862194161951,0.6817929211375038,29.952954700276994,1.388053209881154
7.618373311249448,0.6874488763060133,30.363622344172487,1.383481041871822
7.9266506151059986,0.6991121125594935,30.453127910502356,1.3901596415054538
8.204858452352497,0.7127242677865999,30.252424012692146,1.3916746433542664
8.432503967595398,0.7244571212444794,30.139102883355815,1.3888630630235221
8.648903875284107,0.7380875810588656,30.441455750072276,1.3966573988052857
8.754019974837624,0.7499171302352026,30.77469033610545,1.4107949505679445
9.064718796718562,0.7545509731187919,31.077994700501566,1.411093306924388
9.282161007502213,0.7635915273586412,31.42622449537847,1.4149531838809675
9.496959999642804,0.7725108340036015,31.434483779695988,1.419313438703019
9.801962820861648,0.7898715716371654,31.395183137021597,1.4327502437613717
9.996897682175563,0.7985844988389887,31.72990180187282,1.4319809835148098
10.249182169733409,0.8086028864604622,31.61550842796046,1.436694402184299
10.48431877382852,0.814592552041654,31.879305937922677,1.431671743688868
10.763845620495298,0.8290728818262998,31.839579476788636,1.4423604763543614
10.990409977003962,0.8385530812071397,31.77062580335163,1.440801244138444
11.279816662041883,0.8408456838509858,31.719914268558355,1.4267458688047396
11.30210513554554,0.847244027104076,31.67155790905316,1.4246978535602843
11.493508453341118,0.8539167240695333,31.664135894823144,1.4282381361539565
11.671280657134528,0.8632416552423078,31.646386973186107,1.4325574351476762
11.792790499512828,0.869052110483311,31.763261675591874,1.4332553664591845
12.061379777285701,0.8744975071334032,31.596104126697114,1.4311232545069887
12.370080015563856,0.8814172360109508,31.294898884405406,1.4219266025087762
12.54606578210475,0.895392969365285,31.419359691334012,1.4268145512849368
12.619462171978034,0.8937035921125496,31.396077280965812,1.4163496843983883
12.872359536658804,0.9059465878437453,31.02822758574956,1.4239393127395137
13.000438040446717,0.9119567897732158,30.992810045313952,1.4178041983618752
13.185999867286244,0.9157265661366918,30.56985001791312,1.410281203281667
13.414425011417583,0.9232562381774329,30.455495807508566,1.404944177059514
13.545477671096418,0.9262191385493257,30.556526330187154,1.3981955566878859
13.696210085431307,0.9312561750721696,30.07911462451063,1.395063355366792
13.94486213825357,0.9416540775768204,29.821744145890484,1.3930686397939303
14.159713210591194,0.951600748192483,29.737931154938973,1.3915757160617603
14.450458865878065,0.9531397903840775,29.437095394105164,1.377455296458315
14.66770813316434,0.9640493571167807,29.040077925011555,1.3734182028935304
15.026521043917608,0.9748400685498537,28.521176309299133,1.365590785657826
15.312746405450971,0.9863250988275648,28.42119192671403,1.3587013626868432
15.514101786139102,0.992637913112898,28.296418509304203,1.3523634371053064
15.62897269169367,0.9982184609542617,28.48454850401755,1.3519921682233507
15.836842012392372,1.0048042816543665,28.195967125605957,1.353486131876964
16.000427193769017,1.0122592253248563,27.936977620852566,1.3499121540379537
16.350037058698845,1.0090449629304463,27.826617677641874,1.3308458118738808
16.500369830644797,1.0259878732007186,27.549376153188387,1.3381319308652175
16.978176294706984,1.0352849882113393,27.08891346791303,1.3303427907546586
17.254482186654144,1.0459385019566436,26.46810512966944,1.316937364284714
17.57619356880995,1.0508815134145277,25.983474202437385,1.2977919599038872
17.822439403703896,1.0615685211308195,25.401605008927362,1.2869919583692686
18.05666141360751,1.0732646158818284,25.255907321315828,1.2818412297037831
18.162553255343674,1.0771448655114009,24.95101345520857,1.273621427070269
18.279411812684252,1.078672445802938,24.41548150155779,1.2613723480177794
18.286222840344074,1.087484963432551,23.83624323685971,1.2554090988449818
18.59599029670775,1.08917869538114,23.89437277821671,1.2443546933777996
18.8193869107819,1.0966065681921005,23.665382798608842,1.2416126736226858
18.92851448734623,1.0961186112113028,23.062296455913742,1.2256928828033418
18.99486750881719,1.104129162848652,22.519967710735568,1.2169365565802286
19.268831093216114,1.1115495396443316,22.362213873809296,1.2096815843835373
19.60379024666286,1.1173160502130082,22.080243899997562,1.2007513554309914
19.755137161833318,1.1351888885629147,21.630301649635726,1.2027222848771977
20.050503569282895,1.129305740749667,21.038361367693522,1.1763119197496843
20.12948392665825,1.1398630640759866,20.627001334706332,1.167344065233363
20.281765332614853,1.1365625721413575,20.41084717813598,1.1506374450277477
20.561815867993896,1.1402275342502932,19.967722673021353,1.139719772431944
20.853357839003266,1.149963526034205,19.731109188611512,1.1320959905981576
21.305532158462423,1.1576520515190052,19.535872027889926,1.1233990408822625
21.53424368615137,1.1680664156062674,19.24228620470808,1.1172446394820474
21.828538906175996,1.179671016290542,19.13679953810349,1.1150796804139262
21.95526356744849,1.1817235335570324,18.888392558010697,1.1060939712760458
22.158849736421857,1.1928385394637964,18.509141133329518,1.103721979361329
22.431864870144057,1.1965985812670694,18.178783418124002,1.091272918109633
22.424899156553636,1.203352043743149,17.903629840756526,1.084257266510582
22.67697403115852,1.1993770282471976,17.716949583921494,1.0705414528527593
22.76948975437003,1.209775067216586,17.18924611882335,1.065891618313167
22.840828162368222,1.2104387399042917,16.943196123807795,1.0523320832380632
23.14571229992005,1.2164527752223346,16.69633521584255,1.0455454152841588
23.339656146616782,1.2159602139107573,16.335746242471966,1.0305252847373036
23.34479182908859,1.2299711155582127,16.105234086226783,1.030133933339442
23.551866736695768,1.2266960348213582,15.802997178052918,1.0166501545534763
23.627227512735654,1.2305252055750324,15.412821567069132,1.0062185808514121
23.91457736480214,1.2378448806029472,15.135226673657153,0.9977412754764271
24.352529722660854,1.244384996091269,14.914518387913605,0.9875163253018853
24.570546982583714,1.2545350543284413,14.576378309861115,0.97969533475847
24.49627671222031,1.2548289647346882,14.39414690942775,0.9685687861342196
24.50542349796745,1.260596947270887,14.089830673996683,0.9652200119778549
24.914130759901276,1.2601496938635917,13.946672180808038,0.9538290644863708
25.137461218030985,1.267610626786014,13.799488909928929,0.9483148465548576
25.326828332309283,1.2704332909029072,13.681537332098722,0.9415490127941633
25.139414501760815,1.2750649077798153,13.511112591948928,0.9392600423703966
25.312579535889718,1.2742712780537595,13.340969079130286,0.9331860432155552
25.4395733316603,1.2747905665539032,12.896440742953947,0.9215580003227649
25.673215134225586,1.2831349799549203,12.648513929057069,0.9124244726252844
25.794018769352174,1.2832181428650797,12.424920565535555,0.9003097945720981
25.79091948068813,1.2859091764995902,12.092652954846598,0.891085932151413
25.998897353408264,1.2932777188041722,11.890439199593542,0.8846692099683898
26.096659044782733,1.2908573456871097,11.495450388459949,0.8698838995535937
26.27249649340083,1.2992003367146383,11.29594591242858,0.8619558514061306
26.54853886622561,1.3103273267034354,11.102146396690545,0.8578400179266804
26.553510028225283,1.2997451507845412,10.917148225324501,0.8409999990652663
26.501843572847413,1.3044814072047783,10.838714355283887,0.838562754826311
26.692151608717648,1.3090625392252722,10.700184284948914,0.836348910635438
26.477919500333098,1.2981222802532806,10.57550099868651,0.8243051022256359
26.468954039370068,1.3022991255985457,10.38987102109819,0.822710391055228
26.576984663776305,1.3123916455700189,10.265319314398104,0.822521956335868
26.640296888268733,1.3070287099272793,10.18246536381157,0.8134472998124836
26.910355145835574,1.3046333935661503,9.970234319003005,0.8042263192304225
27.000689937259356,1.3167305539886383,9.861707789880297,0.8024960132509018
27.058604018521635,1.3139235218955547,9.634915724338368,0.7928944503838069
27.230333851912963,1.3189786453888162,9.483023518246382,0.7867026110150124
27.609992999088913,1.3245981427609457,9.36488046687013,0.7805634057486261
27.709653900700037,1.3268113685459182,9.16601734366582,0.771974881874096
28.016108645967766,1.3328208305306113,9.048413999021314,0.7659276494359476
28.26212460629828,1.341744996698447,8.991258779970222,0.7631264791584347
28.40891120927728,1.3549691998796278,8.908679901023783,0.7646460261388279
28.39990534557783,1.3603687744748207,8.786601288667178,0.7623149151381454
28.69979927602549,1.3636793063727173,8.763263695529083,0.7589571395999494
28.776397222329695,1.3509456219920304,8.732842771619824,0.7479421924032525
28.645503371221814,1.3629391254530683,8.744375507201882,0.7538847773712741
28.370042971435975,1.3509838435640835,8.726965527365929,0.7493988310541609
28.6475698989277,1.3529942444204404,8.673544692819291,0.7496744799568174
28.599077996725256,1.3458898217333501,8.496356144227443,0.7401757995499142
28.65660350634862,1.3569004274419127,8.4936585226037,0.7418132956400566
28.700742137683413,1.3524532460644523,8.450543104718948,0.7374028905260078
29.071121820146892,1.3528558066930398,8.482033770137154,0.7347670519717932
