$D^a [mM]$,$D^a [mM]$,$I_{islet}^a\ [pg/islet]$,$I_{islet}^a\ [pg/islet]$
0.5170327050758201,0.5993948712287009,3.042433515669621,1.202123698367174
0.5643929818869454,0.7107976218513555,4.077101109910222,1.6873343853799332
0.6318402473838827,0.763205272288033,5.132174124663785,2.0292786710133743
0.7174201877388154,0.810787721337344,6.169357070622297,2.295780412231985
0.8056344655776826,0.8554186334751532,7.174599253221694,2.5050759279294597
0.9188674869747951,0.9084924530881225,8.305601219629365,2.709467686724132
1.0414629856690307,0.9745490219067153,9.263583442653374,2.9202837778263753
1.168440926909112,1.0350257919758439,10.175933590959799,3.081816204037862
1.3002755619959032,1.0988101185649544,11.22083693279159,3.247746738254865
1.441837372639727,1.1580613417260155,12.230509482097272,3.4015546709867803
1.5824330554481634,1.2163282684855368,13.173503427323507,3.542996458913931
1.7380060337591445,1.2752016405787514,14.233070077522193,3.682283940802689
1.8900629632637627,1.3343758518094118,15.025960714421833,3.8122491971883816
2.071843470150111,1.3924078040929624,15.879272613571116,3.916420581969685
2.242480232282899,1.4616659766967963,16.8655383867911,4.051567847454678
2.4302555273814512,1.5126181262432694,17.785506517001206,4.143180437941219
2.591443415651523,1.5788222905018858,18.57128857850125,4.272440388375101
2.7607767495307587,1.631233088617132,19.33261010800771,4.365122731838536
2.9438192292193706,1.6845263692885497,19.883410245468873,4.445278581225065
3.1443313399833666,1.7346849321925033,20.532648360982133,4.49991828128693
3.3462140534518885,1.793903394780103,21.126992944557504,4.575370896561048
3.5126079905087546,1.8511917721193014,22.032016679195205,4.666085589925233
3.7001825976302563,1.8995611752437027,22.797003428154902,4.755656209144739
3.844309516435781,1.9480460350997648,23.331724549017796,4.838161554571298
4.060133033792191,1.9896705415284175,23.976476502405173,4.892172762559838
4.297378604078287,2.0419452942728435,24.424122065366547,4.945083947831355
4.507915359389715,2.090209144656865,24.966462162186705,4.980322885402315
4.7383767805900145,2.141597048828169,25.528262832730878,5.032791586624594
4.951253054762384,2.191912116281898,26.06739055504168,5.0845643836964465
5.1951300311186746,2.268311733820219,26.586126792658817,5.195260082994899
5.42300347606293,2.318992096709834,27.215524401489663,5.245708648837584
5.660195927250369,2.3561271130068833,27.532835397440486,5.26440546637032
5.8991036019250025,2.4113590895477017,27.762453210805084,5.305302398085525
6.077119146821225,2.456820797733422,28.097929878568955,5.332588040048075
6.282789606052808,2.511646748172565,28.278178803683346,5.390648773896313
6.470958407151934,2.5411149133493804,28.626948139569382,5.392011179144596
6.619344238235272,2.571299892073861,28.980767621696902,5.413906620849796
6.791919922463163,2.6098510891509843,29.06804796666345,5.452257454019456
6.99091806198356,2.634688169072053,29.312950706547376,5.446703901067216
7.216918748924262,2.6617825537678423,29.626754332701427,5.445627683541205
7.496866539998214,2.716233798740568,29.85580025360804,5.489270370607925
7.705491605308393,2.765841562413765,29.73528899450508,5.506846609263165
7.919475168328567,2.79192031746172,29.913379422393245,5.48227017592385
8.119929767539523,2.8391846984125477,30.417681208373132,5.526847805372407
8.378526095916627,2.898932785170684,30.679985891892574,5.600886771231849
8.621959659348496,2.9250835596559783,30.757249554552004,5.586928110445463
8.803661076824014,2.9669483569845845,30.86977889621522,5.604206675697346
9.092682246970798,3.0130516966949235,30.893368847680406,5.625151149539674
9.416889995114687,3.0649118571733784,30.97047071265489,5.63462518817557
9.69625673534857,3.1035884699114624,30.84164442541679,5.613479855629267
10.032720020681108,3.141373659246594,30.68266755390364,5.581685302100447
10.241831242053655,3.1994918837336295,30.96554735658422,5.605548312013379
10.490878245771112,3.250853862031667,30.764240629544744,5.635771749913082
10.749690029760302,3.271921739158129,30.884891687816417,5.600335495461373
10.909116836478482,3.3136760271225874,30.7623269550276,5.614250067853493
11.066118642570983,3.3481881016839843,30.850631443325028,5.6266464591346335
11.182880438876838,3.368228101216214,31.045413342037712,5.63364707215293
11.39352756301666,3.3974723475639266,30.817068215303777,5.645429353725507
11.574952879434303,3.3958481156449225,30.946818151975112,5.589836407804854
11.82431221993409,3.4423327788573412,30.73851715517698,5.613560181359794
12.077568887134065,3.492992817488978,30.638140348295348,5.624322122113284
12.27105742407472,3.508539912714215,30.664017646154804,5.590059251402936
12.556611177140285,3.559003556085725,30.267471714730554,5.60359231404069
12.83302449803723,3.5821398090545737,30.025985784209983,5.550488048142222
13.043564592504657,3.607701908715384,29.91739701125345,5.516730250166495
13.343851495774166,3.651626393981916,29.740214462256095,5.517057713942516
13.517730241930693,3.6697161512288936,29.682961048884206,5.4812355367522105
13.782383284562425,3.7346723364221694,29.29605794673596,5.515870759938248
14.043793995825006,3.766318049622886,29.083341219824106,5.4832207264083745
14.40431696061895,3.780508725204514,28.90990360037242,5.425831322475024
14.674134278517197,3.833533526988227,29.00983352184325,5.434495497807409
15.00058681165203,3.8886090888637947,28.781650781422346,5.4520466355541375
15.255969873306496,3.926752238427754,28.564028781760285,5.432426466502045
15.417249240126983,3.949792148400347,28.327362142263706,5.402526697407807
15.6259711946909,3.9686946059989765,28.02922630680828,5.3707379906168
15.867926599877935,4.001061593513941,27.737107265712904,5.34917849575505
16.067448320555005,4.025509169814823,27.33390860715848,5.31201973231676
16.30913932905417,4.054897503850926,27.24789236261223,5.2881209900157575
16.323479187029964,4.0652452800522365,26.84740945636326,5.254294097894723
16.670518112771024,4.099508536967109,26.459939263942882,5.236427234195399
16.8941828121396,4.102867999195736,26.095394908493073,5.1608883303641395
17.155707404794484,4.137385044825742,25.791504107862227,5.133015283181056
17.130883119624585,4.167530072794962,25.657764412537297,5.123546019595332
17.312169388419136,4.175766493189266,25.40742816839466,5.102273628585098
17.454713036647373,4.216036404875148,25.1806371990419,5.10558054287693
17.776652903783617,4.217894276406641,24.926233278106032,5.0527747950083
17.90245241186121,4.274513111554124,24.67802857516927,5.062074605904613
18.0703614728821,4.28920912800735,24.34326071509592,5.028282755080528
18.13251615925078,4.292929898268241,23.888511417241272,4.976759473317953
18.305508003607017,4.3044084204180315,23.62755648560426,4.936420353649776
18.48172496317466,4.320877553383898,23.267747076562568,4.900351716082086
18.710912212095337,4.335503116083337,23.089521504222972,4.861504079835771
18.697979810042934,4.345127078419059,22.668766725231734,4.824999446170329
18.837763887212482,4.368798724128672,22.363205333410594,4.805033347216289
19.053065097119557,4.394136017159158,21.932014170711394,4.774074890727518
19.11968729918911,4.4166361615965,21.51041926231896,4.734338576154252
19.394855441665133,4.418122257351061,21.233442083171465,4.676719772695032
19.537948613752885,4.440155802233893,20.983857183933615,4.644487472476964
19.82293470412035,4.465762754008536,20.70241760101701,4.617309418755166
20.027819512466124,4.4989281029381525,20.218535245002453,4.583449332258309
20.24885268554346,4.535061816386928,19.795217096355206,4.545508778491886
20.2970249597584,4.553163628269785,19.369774021109148,4.497513606880241
20.39813257012562,4.549220142449792,19.12232972351849,4.443640905608672
20.707529196945842,4.57148976325698,18.81171023280683,4.412811740590486
20.849832705093725,4.605373898037449,18.519060267499476,4.38613767748109
21.06340254805168,4.652021157342606,18.36327730472866,4.382877011631871
21.13375546868484,4.620720542680155,18.202050310304568,4.317204852093251
21.548101394169326,4.674956884371965,17.953655546395925,4.322812541868395
21.80700530253478,4.684972144966562,17.66277197880433,4.268375860533914
22.00021604452328,4.712353284632437,17.359760576286874,4.234551712200991
22.21551383534809,4.76934341589108,16.907920009766823,4.221752788315276
22.468951131457437,4.7702580096666525,16.646443790023085,4.155689748182354
22.76771389392526,4.800704078652968,16.32906620306343,4.1205561998709195
22.94358138044192,4.837704608366584,15.884974859050024,4.084160928862613
23.264900492624918,4.828437791806777,15.631778611432216,4.009511907137658
23.490189417142012,4.873125897372092,15.309150289137168,3.9853625407791884
23.82983065052914,4.892079346484924,14.946251113972435,3.9341349613543115
23.906773665086085,4.9086953014763886,14.811680174142023,3.893578575038324
23.73604951474736,4.928667872632693,14.614513562041326,3.885802187991394
23.808503233003794,4.925572123844861,14.319535912707432,3.8567761096379107
24.15971800373419,4.939332263788856,14.175243999822287,3.8241226913632125
24.191254667462655,4.955677823201119,13.886192235886838,3.792202021487178
24.478466960209857,4.95656161157148,13.537628803437753,3.739970495664888
24.746518456772648,4.985412315639933,13.398497950094795,3.706503527976534
24.811224475938097,5.004250055328729,13.281994968734574,3.685856609246513
24.82512822425238,5.041966229647459,12.987961304400132,3.68256180424827
25.053719649301307,5.021765845280092,12.839829185310592,3.628919521093017
25.398215600704315,5.055345248287188,12.673894619980489,3.611268887457648
25.35831723840058,5.073980357217675,12.515764359584324,3.5884816613480393
25.397302909068728,5.0687601995405664,12.295333717555424,3.557073951319735
25.51603237686058,5.102518312596554,12.131366288185392,3.5483045741897596
25.61418181183886,5.137230961874853,12.006288440713728,3.5427578944787808
25.564547054993636,5.08569271442493,11.812403974839729,3.4816804693230883
25.901917007748835,5.105056286671098,11.658836210143427,3.4618545785201236
25.92332478259427,5.158016973211977,11.558672421367204,3.465338562861799
26.060455891992376,5.1451156235623055,11.434724060902989,3.433507674988776
26.107549019641937,5.165606199752484,11.236135062365717,3.4182595382299437
26.023227023579505,5.1686295100658155,11.042059982442995,3.3913780665739153
26.062625348920776,5.152502650692752,10.802512699647677,3.3502214001763613
26.304675952970516,5.161830760829897,10.620859956364823,3.3165464721363467
26.90476517108097,5.216753389888709,10.457489860611219,3.300801392108816
27.046402090339463,5.217593564794188,10.410485244857867,3.258630824586574
27.002776524605153,5.25400709612468,10.34514984826895,3.2650710261092426
26.711531118422585,5.251269753634638,10.257333589678455,3.2591521506195
26.623001000598347,5.21691268696279,10.092903780844571,3.2309123417192236
26.95056098719666,5.209463748661334,10.033533999970821,3.204052116734168
26.945559596126863,5.246522963186479,9.818885607731776,3.196875947666106
26.97111742904542,5.245261673193818,9.60944259071466,3.161948182775266
26.808883332761052,5.239230628581882,9.464698767034932,3.1316479395010854
26.78332748205767,5.200271976827563,9.319357590118562,3.0891216676491022
27.000191242266176,5.222844346332398,9.047274882441457,3.0666415531410984
27.37615537203333,5.2359710387981035,8.884609169459909,3.023104678805628
27.71755352201547,5.309311475912034,8.771939817049303,3.020450282850013
27.791984872676462,5.31156763584698,8.676584984092242,2.9896624206801152
27.755805216807627,5.326817657646648,8.61427867601772,2.980973865204998
27.70685178585909,5.291980495858531,8.515681123819553,2.949270995337365
27.612222389026208,5.2823026409885205,8.394954770783158,2.929421364868652
27.505308855484454,5.298215110224806,8.293294718265154,2.9241335764413696
27.696883610105655,5.326614006904432,8.208372123594744,2.9219955444528867
27.801999745067047,5.297136596154049,8.138941752926216,2.884600890048226
