$D^a [mM]$,$D^a [mM]$,$I_{islet}^a\ [pg/islet]$,$I_{islet}^a\ [pg/islet]$
0.5191130064815849,0.11573729193819157,3.0381642870473287,0.23479048407583264
0.5680315529211687,0.12822609903023283,4.0742631541803735,0.30546032138395257
0.6391851895953077,0.13597700005469168,5.1054829387618685,0.36028753131770275
0.7279752283348537,0.14497159431099926,6.128070375544741,0.40727555643984237
0.828976795027255,0.15464954698375724,7.123812200166302,0.44722038196459474
0.9418233068479311,0.1641345764189149,8.12399001118392,0.4803307203601414
1.0637872656988423,0.17487719166972218,9.08523215393871,0.5127847165183202
1.195186714475604,0.18532454283996927,10.04265975784591,0.540996414731602
1.332144674766813,0.19765177088443905,10.988140033448664,0.5726243486290532
1.4757986509859498,0.20765537771998208,11.912631078989355,0.5959827186268138
1.626635841470309,0.21766508139644675,12.80954546623903,0.6178476934557497
1.7823384847258419,0.22958282904908195,13.692155356219935,0.6438408152824217
1.9413979406941506,0.24026502417887025,14.560585969535452,0.6656489830049228
2.1060801536595952,0.25134414591251886,15.39617086630506,0.6878163349747994
2.276507736469228,0.26064154740357814,16.204327370228494,0.7040275610395804
2.450978184783115,0.2707392773295205,16.989530791105103,0.721672329771631
2.6265406730369247,0.281015962060797,17.766059154536165,0.7394512162179767
2.8062930315853722,0.29268053688598883,18.537239103079703,0.7608111975231945
2.989433686239655,0.3022905353943856,19.276614827227505,0.7763641573371923
3.175444861696624,0.3110031882234707,19.986642857375983,0.7891202242058096
3.3638765038147853,0.32075567808543315,20.66287136687981,0.8041053808802741
3.5557987423715565,0.3285324641638498,21.326048415801726,0.8136127711261338
3.7495251283358177,0.3392663290203279,21.946343773606124,0.830152431515315
3.9476881495007627,0.34809512773555645,22.557246478142776,0.8414395466304041
4.144771090778094,0.35611910611429354,23.14581822467846,0.8506831911127798
4.336126253021346,0.366576499843037,23.719958038069034,0.8660179991500038
4.536283062241048,0.37487087517377043,24.272951367079926,0.8761113141883669
4.740773604682318,0.3827440833857426,24.832700092201755,0.8848529545242375
4.944746975770701,0.3922742954429273,25.343837120989196,0.8971744379185935
5.145011922120024,0.40069369150805867,25.827594351781997,0.9066851568326729
5.352185457894481,0.4063430894275445,26.303694464416434,0.9097971137745334
5.56217146878357,0.41562033045855157,26.713467904504252,0.9204692201183612
5.775419844657115,0.4239880124302189,27.12439596776935,0.9284359104061762
5.987551917496122,0.43291452298962696,27.52167701463463,0.9375496177732595
6.192232923751821,0.4390147097179574,27.874428693326994,0.9406220557487276
6.407776142993726,0.44649976588038454,28.203365693546825,0.9464157054158658
6.624399732278326,0.4563727921718927,28.52540001603576,0.9567075542206378
6.836273048673444,0.4649399388880119,28.85794399809398,0.9643804640526883
7.049606531662424,0.47102126224972024,29.148209744902616,0.9670268776676992
7.266695734677981,0.4791097939139804,29.4327687713768,0.9735573272091214
7.481255009133693,0.4863549122612084,29.658706531512674,0.9779624759385402
7.694154591998571,0.49105952160414096,29.894084213637537,0.9771405318837968
7.903116283265469,0.4961941750370605,30.069625129041757,0.9772672818787089
8.11571242273059,0.5057631046586694,30.293542778233277,0.9860935594499528
8.333590130175898,0.5105310312531239,30.442660714060466,0.9853672874214539
8.552175506741557,0.5191883808642569,30.581685775328317,0.9915109139566415
8.774146518762125,0.5228651652505083,30.701258888488102,0.9878172532814219
8.99264867195907,0.5329578590723021,30.809187426410006,0.9961709089550764
9.216321475658372,0.5406075972082245,30.89038211090545,0.9996697552668161
9.441531148138305,0.5496507535018067,30.960110536796385,1.0053618118983008
9.661812192274063,0.5539405694998621,31.07306810764595,1.0025914143699002
9.880273993692331,0.5572331172907957,31.119694908596344,0.998411546776091
10.099679063730804,0.567172623569873,31.129790514722163,1.0056347874177283
10.310810532322058,0.5739679742846239,31.147131161095285,1.0070248406836468
10.524263061229728,0.5767478542030386,31.12763344223696,1.0014859880253122
10.756581757526472,0.5872642081656897,31.09142288280694,1.0087648406893353
10.973126593808825,0.5899546439302984,31.047762152974595,1.0021626590184478
11.19447922071628,0.5978467200294438,30.969193497454206,1.0045394945279886
11.416799708149457,0.6020003218351967,30.90229591191477,1.0003283893439605
11.636174761922486,0.6077664550890698,30.779882580712734,0.998736547295147
11.870161741361068,0.6113594182595703,30.676465157219663,0.9931127473888401
12.087946287829181,0.6169781583867826,30.570674552658563,0.991005829334016
12.30061467341117,0.6258153954159269,30.483804203043473,0.9946206115096035
12.527126603495901,0.6333839552862837,30.36967702411491,0.9960368590405774
12.75135151278521,0.6394626945453926,30.213843142314833,0.9944951139838656
12.965269369815584,0.6415566569182247,30.038435736211863,0.9865113559369388
13.162021431139665,0.6476704728006678,29.827489944164093,0.9848634799638625
13.377418103199023,0.6517555247858091,29.653616884743958,0.9801636050634591
13.60513363124365,0.6572877755884379,29.475818280664345,0.9774871621495191
13.817052053839657,0.6629737011391871,29.25208973112116,0.9747178707313431
14.031814356669095,0.6683426541268125,29.034590016109476,0.9713735753869487
14.25481842144467,0.6739750034402926,28.808422255013898,0.9682976174181064
14.479138032712745,0.6774356245228695,28.577407081513936,0.9618590564956799
14.705017200688024,0.6831016007939044,28.353977849311782,0.958584248324372
14.925422648123178,0.6939933692560017,28.129852692456353,0.9626841623900207
15.135587253071382,0.6915250804311484,27.862440259780044,0.9481535927266261
15.358828073283426,0.695592115685836,27.561276789098585,0.9422799575909566
15.571681821086484,0.7033254683790866,27.271562707470455,0.9410060326198371
15.782772967471834,0.7083919759544458,26.993813582874903,0.9364039715541954
15.98912570473221,0.7162944083038291,26.744765166489852,0.9359239021024895
16.190079732076384,0.7205054637302447,26.47476462438182,0.9308573489683608
16.40506875024431,0.7245624725376544,26.1899021656568,0.9253330728824772
16.617026258638134,0.7307271125650344,25.891601648940274,0.9221025699047657
16.80902860483372,0.7333617801196419,25.586137909648514,0.9144144024590595
17.023488468947434,0.7356909904496634,25.262891468628673,0.9062714351415018
17.24127396208491,0.7452955022248235,24.928926457279715,0.9065451946269836
17.437155899629076,0.7486675178063882,24.600115793935792,0.8991305955848962
17.63657692589988,0.753775876265597,24.285775018515476,0.8942236778034477
17.81500960706547,0.755425605785365,23.95994884213093,0.8854786771242227
18.04388054670695,0.7615809039581506,23.617481314967268,0.881639686822621
18.245381002005168,0.7666090775949546,23.307206778094947,0.876091889015042
18.44356157387175,0.7674313415981057,23.002651900611152,0.8663834842843818
18.63716900121158,0.7691907388048532,22.66936789257719,0.8578334130896201
18.8389109268909,0.7710559823945832,22.342142586213473,0.8492345806466782
19.040816744810673,0.7809961002775897,22.011941434138723,0.8493728329885731
19.239604988152568,0.7803030586261247,21.661610913793805,0.8376816047205916
19.451703546140134,0.7869024237921664,21.316556936881163,0.8336575507826709
19.64997218211338,0.7905847939394999,20.98445190504034,0.8265287021446936
19.826579169741258,0.796164822842588,20.645994880414676,0.8217803282626053
20.02018941636998,0.8017651616578501,20.305587874445084,0.8169678371769399
20.21596576859465,0.8060752150039812,19.970524447837697,0.8106490137179339
20.41375191661744,0.8093855295827246,19.634470727278377,0.8032445296590374
20.59955763776035,0.8122852054435059,19.276945939150295,0.7953481314667592
20.771931890975452,0.8144816500153237,18.93565578385979,0.7868558551820858
20.960559345335124,0.8201603794584397,18.586955979477622,0.7818035819250018
21.146500058862202,0.8250310457481105,18.25496740472015,0.775814069394571
21.31784819845651,0.8279639877158281,17.926281436003286,0.7682492355642978
21.51243819874546,0.8236901311639405,17.58214849429173,0.7539643880003272
21.710181964685304,0.837160176229162,17.24902018651094,0.7556798901232458
21.886267952683536,0.8361630658606267,16.905147594355935,0.7441390583386414
22.052046804176527,0.8432961086661206,16.565884959067958,0.7400460267668455
22.241058939348353,0.8456159268620723,16.219767139130358,0.7315628610962457
22.416589265302726,0.8446200791655677,15.911863979869244,0.7203599936682308
22.59616205525382,0.8496895929632605,15.608803888004763,0.7148954811078939
22.766690645426575,0.8535494082373761,15.296542775568817,0.7083811023974393
22.959764490093455,0.8543959110083379,14.993890549070843,0.699213881974061
23.144714420601183,0.859478776575274,14.708897272622162,0.69367246562939
23.306550539764974,0.8652157296704415,14.405399294812707,0.688762231785288
23.471788816497845,0.8686137860522943,14.115502352090761,0.6819812460662017
23.643402693792677,0.8690034976331683,13.823578743684475,0.67288706484052
23.7865468977446,0.8758580110559063,13.537958314509433,0.6689440922072545
23.922607175552503,0.8826330793861898,13.268548817583302,0.6651872812481782
24.06872982491616,0.8776141658632128,12.990986223459847,0.6526987429537932
24.21760010360179,0.8846430036956271,12.733632973278848,0.6492499084665538
24.34734579372302,0.8791400827744648,12.466067257329879,0.6367168740889508
24.51004149920982,0.8874880451261034,12.204397003533181,0.6341693548172389
24.665437138108814,0.8905143050528403,11.949443262351643,0.6276118718293938
24.819594391468204,0.894017126502276,11.697224766369422,0.6214910681872594
24.975207431062632,0.8977321606675681,11.435276937019461,0.6153931981430534
25.119279448201887,0.8968669333271452,11.19596123664491,0.6062325141542353
25.271916685873023,0.9009694369828164,10.973834683366384,0.6009357925559473
25.410343450945366,0.9040677092238596,10.738036485945171,0.5950318836255075
25.550345438820546,0.9085941398126196,10.537120183618155,0.5903049174752188
25.700192239750645,0.9054007943779128,10.32972601810464,0.5808778192980637
25.830694201870912,0.9101585168886644,10.12498796596146,0.5765871494742976
25.972702478629355,0.9128963525849009,9.922340727392331,0.571052649362072
26.094201311732988,0.9212833591190709,9.721161621631724,0.5690290917011864
26.22416924991689,0.9206946237455632,9.524791973986842,0.56149679383497
26.327810890095765,0.9206965545028385,9.348684460529071,0.5547095990155412
26.452124327778265,0.915228978735724,9.177078913124713,0.5450869785363184
26.577335567408294,0.925905448412388,9.007950109360971,0.5451373504626907
26.688654325799877,0.9310360999867245,8.832584359049646,0.5417574962505617
26.82185297027561,0.9323664823648193,8.680918999349707,0.5362716376856298
26.977897251508853,0.9344968314023681,8.534155022767589,0.5314331009923682
27.10516619509016,0.9281710396098671,8.381586752552876,0.5218598888256121
27.2276354655659,0.9349037870984684,8.242166702261768,0.51987316042094
27.35046348315549,0.9339910745986655,8.107999178545287,0.5138691246002605
27.465121746491377,0.9443913817717526,7.97783808749939,0.5142511903879993
27.573525027833927,0.9419555330938333,7.853275521124389,0.5077664895747445
27.69583592331002,0.941599574558472,7.743297795674889,0.502679270780457
27.801813125969836,0.9483687901937976,7.637216345997573,0.5017177147121802
27.91271334130377,0.9502828924469174,7.539521189585796,0.4983662915633086
28.02146996363318,0.9492828813078459,7.455742359758894,0.49381824129610186
28.111895497271462,0.9505886126220522,7.381009206953043,0.49092681600087706
28.22309134210164,0.951543537566874,7.296960309150691,0.48790017080792614
28.332455077478425,0.9619457657897401,7.230888430394321,0.48973477533283727
28.416543976309843,0.953489031754706,7.168227584125423,0.4823269683680564
28.514925017623504,0.9518504047015236,7.1059454814096,0.4786368486810506
28.631216298850514,0.9539434423258186,7.055662758710462,0.4768778549594808
28.72184075751998,0.9535731749583797,7.008175231351586,0.47413655425906676
