$D^a [mM]$,$D^a [mM]$,$I_{islet}^a\ [pg/islet]$,$I_{islet}^a\ [pg/islet]$
0.5186966908034119,2.227098454731908,3.0384838600316266,4.4541968258521525
0.5270458337831736,2.7940322595862273,4.08614952843876,6.604646083414649
0.556915886947038,2.9558097314479492,5.134926980162562,8.06288357245636
0.6073574717516548,3.0394370886248625,6.178499212761642,9.087711552898249
0.6746247048092258,3.1830396581784512,7.2219447832961725,10.0371538217948
0.7563334474928298,3.35551720418919,8.24963975358637,10.881592139313407
0.8517555022054317,3.530987338441024,9.278825265312506,11.581251288919633
0.9592573462315395,3.738315222804399,10.2820825551247,12.266420470379028
1.0771234562037053,3.9608121630641673,11.269561908126407,12.90497648986939
1.2024633175401096,4.201370438900229,12.241661761647356,13.537406805684656
1.3362667668798218,4.431357300954053,13.209340154023096,14.091479444394302
1.4753901049024059,4.65159112604629,14.153530507030824,14.582675827891704
1.6217537532621724,4.920241906410296,15.0994441741839,15.201681602635924
1.7754391882244265,5.146320435236727,16.01861929062115,15.661638494501382
1.934908563345135,5.390071850081662,16.910476570640643,16.149694156671668
2.096591023609042,5.595864344344362,17.789760382235308,16.509297747725082
2.2628157412995855,5.866813628310716,18.650036562763596,17.056433834538502
2.4333693096711575,6.108689244116908,19.510548303721535,17.50708531539518
2.6073270991202384,6.286885474941252,20.340557127342766,17.76883646911674
2.7872305419121193,6.499834558597488,21.168352638016028,18.122854818235364
2.97148948426717,6.673533657371495,21.970059169511487,18.35813120435604
3.1584938377521534,6.952058876607239,22.742796203135335,18.872078765812915
3.3467353785304246,7.183244606581234,23.494130606873608,19.245583656024444
3.5435859915886967,7.393769568043888,24.212538786715292,19.551143306515172
3.738152495527987,7.60328164098501,24.925408780392303,19.8457138982529
3.935076306987023,7.82085223649502,25.65179951706221,20.16958973874722
4.132332222258007,8.021251756481774,26.27796189481162,20.442496811079046
4.329512855450359,8.179442929465099,26.938861587168034,20.6007677993766
4.530093058818982,8.4334296590865,27.57657558094487,21.007881168079997
4.7321985492397305,8.601392243320328,28.225253861449556,21.197232369442872
4.9352966644775424,8.75025789513434,28.82535742936891,21.340577167725804
5.151080823123262,8.929488064207133,29.415438839967468,21.544040738927244
5.359901088672551,9.133704914355846,30.01092711014256,21.802610427970784
5.568055604335797,9.312258895900296,30.576155665481277,22.008725407595612
5.779540194215835,9.46219765851258,31.108230540640854,22.14286244133148
5.996105986937447,9.675067076857143,31.608451664564857,22.41270615945733
6.208251935827062,9.809540178795904,32.09441514201259,22.493626467524475
6.434013681003637,10.006849453793121,32.54786797572423,22.712802168746663
6.654737004647936,10.242760048993881,33.01361915228045,23.008590918503202
6.881668655204515,10.414759146836506,33.428964519116754,23.157879307932426
7.100705179613778,10.602325843124012,33.84453488836096,23.338190598762555
7.31301819081402,10.762359271047655,34.23554176724595,23.46820002177398
7.538915233964637,10.943248124949125,34.64459632055451,23.64451463735715
7.763065930925818,11.142848161196866,34.994270811866684,23.850218268051925
7.990313988417048,11.207615251761176,35.38374813287052,23.764518472398784
8.214774521460333,11.47291351821911,35.75359623489893,24.113654509552184
8.440338994592528,11.561202948471994,36.10285641463907,24.086987543232187
8.665965353275935,11.687748943328069,36.404284214872966,24.136609184684325
8.890973177841383,11.813627682540817,36.72835905992262,24.18337037055176
9.116024751243016,12.013071882915508,37.07474560371933,24.390262775238156
9.346423330698507,12.151533211893732,37.3402838544572,24.466875547903363
9.574402427669758,12.380350167891786,37.60826421881626,24.71284753410509
9.797810555782283,12.49389465181544,37.86664842634624,24.72989172467307
10.029413853979174,12.524528790162387,38.09778662440021,24.5834807639216
10.270596612808653,12.738758879159056,38.32525568284494,24.788465237745697
10.504436763195116,12.856526520254825,38.534900355716196,24.798823084904093
10.743235454460626,12.991471641275043,38.71843789972779,24.841930934675755
10.974146230138713,13.154144338345269,38.94307407604039,24.94189789308694
11.212494819344922,13.315471718853013,39.182286460509765,25.05042855257541
11.446221489889043,13.53021365390438,39.365661460909315,25.25588190337625
11.682109031293157,13.603047028664355,39.53575792654176,25.18824652172137
11.917005735008274,13.79954755759688,39.67998594496541,25.34699666174528
12.161515220675895,13.927337353979498,39.82768459474665,25.371895211069294
12.413137613771232,14.09869251291323,39.98803056147724,25.472366600034444
12.643133301995501,14.2138942408612,40.12537258046139,25.476295515251024
12.880779180904328,14.399465085029723,40.25370314230624,25.612495176010082
13.110449930636626,14.436690776831917,40.414986022388476,25.488447929596457
13.348173204548981,14.60497974121435,40.53872607136252,25.602149527825734
13.57879187708634,14.785223930990181,40.642377494014205,25.727741886770758
13.822697827007444,14.863300559668767,40.772330603150245,25.673956852809145
14.061342280349074,14.92402963401257,40.89268254720587,25.59269986719868
14.305036873250796,15.044816332848711,40.93858588544543,25.608039427594278
14.543007474760218,15.271212143051384,41.011948681301185,25.79399975204709
14.790525078058824,15.238687042701995,41.11724980037662,25.548775949140342
15.01412593759486,15.328662547409031,41.217963752723975,25.524621116467603
15.250844251867147,15.569992808268049,41.31097265534697,25.758150166543594
15.502404886453657,15.678042530407007,41.423738276860206,25.761548348904544
15.7487004830101,15.840069640634992,41.555749835375764,25.85584358590203
15.99299180088165,15.98155794709567,41.637264132172874,25.917037966636812
16.21317426676485,16.12178444137702,41.66696476230487,25.97178036275389
16.44540752948447,16.224509887480288,41.75460301376918,25.97099708233289
16.689526380998426,16.3080066137153,41.80794071579106,25.938405147192388
16.92471501210293,16.416591160049478,41.88903007002501,25.94371516216851
17.16552739563755,16.63925262004365,41.99644392599367,26.138527406317447
17.422189327007803,16.74106073709719,42.06794216215009,26.1365121252964
17.666456387247816,16.818043751495626,42.172570717294505,26.093695392270263
17.90216581923368,16.95062199878449,42.29866216608774,26.15290312463274
18.164275237611665,17.026731333044985,42.387056459240256,26.122393328388522
18.39608721453928,17.200146759430073,42.4973580538564,26.23862533157473
18.63215157640189,17.406928202138054,42.57061721951519,26.41294079497817
18.875075130695755,17.40330633853082,42.695429387906,26.26564431618076
19.115153966468295,17.521114671650324,42.848388506828265,26.315012065483664
19.336245113169976,17.66301131864907,42.9034289007965,26.40063395522856
19.563038967465392,17.681235189014025,42.99301407872634,26.296025487247768
19.811957909338997,17.878537728809555,43.07949335695995,26.456358180581717
20.056624369169466,18.03933163476299,43.171268743395544,26.55532465092572
20.26065654587748,18.078016326889617,43.29110440471298,26.49006917554047
20.49237701144115,18.159322385436994,43.40969387088542,26.501130198288923
20.734330113409392,18.228439403597346,43.55037443598277,26.48820403190754
20.966207826823883,18.31234579558359,43.66494873923191,26.496709964995986
21.197088507685812,18.510632244167667,43.78716208928233,26.67196988447396
21.440411193725673,18.467833507856454,43.92616047232851,26.499106569620565
21.671580501862667,18.60183424527232,44.0245119107135,26.580555180000193
21.88818906125129,18.688571143961667,44.206635965949076,26.604429589896448
22.11849312721307,18.80367909504759,44.38102965171357,26.683006339626765
22.367599979770564,18.785144295347965,44.515138463501195,26.560275340709477
22.602870763413943,18.937428277027482,44.63979364649269,26.671226287959126
22.840325487934912,19.181880457848475,44.85720297981753,26.92203037352391
23.10791348948554,19.218057091063482,45.06162116701698,26.885397220969196
23.328998668288413,19.289379079377362,45.290047012986356,26.904350440342988
23.56717969073056,19.36600902887636,45.556576710420664,26.948644139398226
23.804267731498648,19.512401515969486,45.81897741731328,27.092513615011637
24.00825540703776,19.690968005087356,46.07642209541036,27.287912679019726
24.263520750033724,19.817991708389897,46.36247895715094,27.413888419115448
24.506677687180343,19.746831913522676,46.646271031469055,27.25887109787915
24.769415306313146,19.914386311164414,46.93583968677516,27.433893567618437
25.01968702429428,20.01252685576047,47.23227299972841,27.51057565816059
25.276951857664823,20.118878356807688,47.582743766676636,27.60782498494281
25.51248681184504,20.170894698718627,47.985216647660636,27.648480897656
25.766375202749146,20.366672666425863,48.35909867931058,27.895265703727432
26.01527501018721,20.437292574485454,48.73819568549111,27.964676942871346
26.243003941427627,20.57376746784471,49.14356003534071,28.132264046339696
26.50523336192342,20.496644940950887,49.52890175756713,28.00896455903826
26.737897336462865,20.63809473940623,49.98161195204527,28.187525203618268
26.956655184080557,20.73959470890201,50.41374793658312,28.32837063062877
27.193607539083747,20.812150112370187,50.905455340577795,28.4361612669964
27.42139997396721,20.841748043834933,51.352423055613706,28.48579409132311
27.656167382060595,21.013551876076484,51.88841647714715,28.73513186988218
27.88313621202949,21.166408638588955,52.37161880326085,28.964710821635403
28.125780559723015,21.220939657292085,52.91241897453272,29.057552100981358
28.377216213192817,21.262930400731086,53.47993040101454,29.137894216790137
28.622953220763364,21.41920453841293,54.09731467416518,29.384505700661283
28.845635604950164,21.492427121040368,54.74257003400749,29.532248330506224
29.069417097267802,21.666114448500508,55.3715746718624,29.827513103388437
29.35735886281013,21.808743072631287,56.05467906894082,30.072427001906153
29.58465332818535,21.810963961019358,56.719856214369344,30.12276484458776
29.821641941605034,21.832830212332016,57.44561578907032,30.215503357700296
30.088216395818506,21.823075387655322,58.16597750970226,30.26608350524182
30.281845158818673,22.111195413295032,58.92133343230525,30.739077887108316
30.53900837999376,22.17983182096221,59.66987774584906,30.91644536641295
30.79296429588097,22.270610663422293,60.437175083135116,31.112322802429667
31.0474757705273,22.226587498382063,61.12871837885432,31.112188491232807
31.257366326754944,22.51769957051574,61.91875351412581,31.590119166963774
31.4949222353178,22.526243708882557,62.79113285960689,31.69549786760199
31.746526112737325,22.605020779665317,63.7052679399646,31.908555926613282
31.96369321005278,22.689287721870414,64.56817905730006,32.13235641701525
32.206528248069475,22.786811793732443,65.5053746790228,32.37876081346007
32.455799649456296,22.790275469354267,66.40915431089086,32.4894599642377
32.686545166465336,22.982008533296224,67.36713874858076,32.86969868853535
32.94914681275296,23.17529689135899,68.41223259960725,33.26545065288011
33.20527379637788,23.063246440837112,69.49300989975796,33.23115876972572
33.48444844603388,23.157366806609925,70.53226401650873,33.488852330861754
33.70218236023613,23.47890081495443,71.67107685151858,34.08625595141958
33.952203338168246,23.389174622489943,72.81471434943901,34.10708503976682
34.16173365782057,23.56715094516689,73.97041762050102,34.520632641195135
34.43262961621737,23.55695293149951,75.13636285081138,34.658425507723244
34.7146503674654,23.648864239381314,76.39921996445963,34.93679535526779
35.011593708302975,23.612499403900397,77.67395035564587,35.02811872577326
35.27971756496411,23.740089119969515,78.98942700853735,35.36752999975665
35.497053010265894,23.799045281225307,80.37908894930295,35.63245809650538
