$D^a [mM]$,$D^a [mM]$,$I_{islet}^a\ [pg/islet]$,$I_{islet}^a\ [pg/islet]$
0.518741037201468,0.154157767168764,3.0374483574366065,0.3100162442016953
0.5681491266090115,0.17952708166567893,4.072895546985073,0.4258009596328557
0.6390343905905566,0.19194309570789328,5.103458257764099,0.508028319430775
0.7279193533194137,0.203995713356139,6.119355317499433,0.5729084073302689
0.8288230929872795,0.217214986400304,7.132219212466007,0.6280669502815607
0.941776177231439,0.23190591170876101,8.122676485291704,0.678829204852218
1.0632704253292014,0.24636130811287135,9.10248006889023,0.7227146508888309
1.194072211995534,0.26309830517692817,10.070503725135389,0.7690654542425004
1.3315846831718883,0.27858646761262224,11.01043828482717,0.8083299888466364
1.4760977633127499,0.29465035865963896,11.931075938628467,0.8465848076603317
1.6277398417728866,0.31008896205707526,12.839709298694737,0.8809174166292668
1.7832138702516354,0.3249325960700133,13.720904667738669,0.9119582306519727
1.9439454020903366,0.34026929715343135,14.589595881783127,0.9432758963770467
2.1093645008204693,0.35480902836459727,15.41913680352047,0.9711593661085153
2.2785728214638614,0.3717583125124828,16.23661634835038,1.0044675308965973
2.4532850607017593,0.38491573090378906,17.045409045868343,1.0267387183994718
2.6323204729065943,0.39816219319410956,17.822472712215667,1.0485748949215028
2.8117886518420847,0.4120270893875576,18.57934789840846,1.071465578173435
2.9949478861317322,0.4275933978401886,19.29987174550251,1.0982921644452595
3.1817073695962925,0.43947340044412686,20.00940794662642,1.1148038254936259
3.3724216458990743,0.45489284272066904,20.67971782424015,1.1397074828113372
3.560175667355832,0.4649605371637597,21.344623478360518,1.1508255633155282
3.7516029965391575,0.4789743078499681,21.99344855678167,1.1720935438554672
3.9449790262218816,0.4936529576504843,22.598165959645097,1.1943499798069517
4.138199615206348,0.5081217984246678,23.216665775867682,1.215761371153361
4.336896816240664,0.5184025394141797,23.78259438337759,1.226844541948653
4.537158388946784,0.5306101369965307,24.323273239950332,1.241633187770252
4.74279714775781,0.5438902035949147,24.846076308328644,1.2582419654907606
4.947479542483796,0.5529191889887737,25.362732504739526,1.264746280016045
5.149513975592402,0.5623929903861178,25.85637399172225,1.272652531836461
5.362634254638092,0.5768055818713731,26.287315706465222,1.2909699263002392
5.572755755736824,0.5905373708874092,26.6966996497376,1.3063296065805052
5.775665378233978,0.5998756116642346,27.091043791133618,1.3121933419806422
5.98867539652676,0.6089706184827252,27.49058579816465,1.3178990233886712
6.1997654421667265,0.6202745520428256,27.840878701775516,1.3278416974837488
6.411459259262647,0.6339400183536346,28.172242505639222,1.342371509471582
6.623457602326534,0.6450431620131131,28.452594823576526,1.3508206460018013
6.837358079234628,0.6530468784001083,28.752143658362527,1.3525458570392832
7.062117316845306,0.6663557168066446,29.044687457159853,1.3651896961540666
7.27786594417327,0.6754774604234405,29.305527420502763,1.3688744766291736
7.496503650651837,0.6820492388643477,29.53207915832599,1.3673807416697576
7.704587495458888,0.6928093100742618,29.738411066832626,1.374290759926831
7.921598905138932,0.7095750890280735,29.94099442400955,1.3930247184566928
8.136805472205818,0.7135155204019362,30.105061797841632,1.3859450989430147
8.354464442382254,0.7245984396190794,30.268515655242076,1.3927067518008192
8.576861011254639,0.7349238408375505,30.40767878412826,1.3975859830720128
8.79910455814364,0.7477650502756668,30.513930597618838,1.4065946423117088
9.02357446134611,0.7544163174270276,30.61958547065482,1.4035759066160658
9.236203481835885,0.767607909562022,30.703849414749403,1.4130209060660326
9.457446333952849,0.7757600007527882,30.75556000200908,1.4129353841044499
9.682315975853895,0.7833688597951184,30.80407295740657,1.4113159619255953
9.905908212401915,0.7903215407822921,30.822988816903443,1.4082379447321234
10.128412036325079,0.7947559898808315,30.858237730443648,1.40078487324947
10.346501805470883,0.8076216211033476,30.86001887540028,1.408500656834672
10.563588326168812,0.8144348619861104,30.856405772760098,1.4054340141062263
10.784504622903993,0.8273528689501052,30.840874204766664,1.4127937338221268
11.00509845016957,0.8295541693436959,30.77671177505422,1.4012897099274377
11.216839221982553,0.8424619369365657,30.713988637125507,1.4077388171009806
11.440106869845481,0.8485087588641588,30.68883928876606,1.4030056240495117
11.666765517046874,0.8599730032897791,30.595120147503316,1.4068579355220578
11.872142158574672,0.8667618564354016,30.509439185896362,1.4027185223312637
12.092443341842767,0.879205837896864,30.378724177087,1.4077739394470032
12.318796691015118,0.8847382807243706,30.258110502303083,1.4008025051409365
12.535315708491469,0.8887760537961416,30.08864872960911,1.3912885530126529
12.761744072751526,0.9040143287300392,29.944702586531758,1.3991163715601274
12.978515576845743,0.9119704102026692,29.76994666425421,1.3954511532450657
13.193514027829071,0.9120428996213984,29.62475308576027,1.3801427615960358
13.415247365296965,0.9215946459887343,29.482359402294122,1.3797507181269877
13.641482740407847,0.9276167906584202,29.299245959381228,1.3735127941178302
13.866010554549927,0.9383877588660233,29.102345055150856,1.3737030841640203
14.070134353505797,0.9495977824549089,28.882047883226157,1.3743991357451075
14.289148588507148,0.9535830866184558,28.646808843032314,1.3644511498809198
14.500020149678907,0.9572376219966984,28.39709785214903,1.3537077799481647
14.729952679030474,0.9734899662153698,28.138105958356675,1.3604194289559113
14.934501778595754,0.9741250568937789,27.87811393292299,1.3449191096870952
15.156710565591466,0.9851401987494652,27.64532154093739,1.3444547099669732
15.364125333830184,0.990224404499625,27.395427228958383,1.3359306031420723
15.567691398583856,0.9936114699568179,27.12887455078797,1.3253242711538988
15.804041216796902,1.0053276134345135,26.871160333256093,1.3252821607263792
16.01440086773155,1.0090286835314235,26.568676793496014,1.3139371912051647
16.221363023944612,1.0166880691814901,26.260819101673203,1.3078399771467486
16.40824839295253,1.0247165090666726,25.97902128296599,1.3026850281899953
16.622339153023283,1.0288926172005406,25.685609266993666,1.2928659891337393
16.84014587382752,1.0352650228528482,25.35723962227125,1.2848792055910143
17.061082326574503,1.0456268413260879,25.033769020829627,1.2812257712695276
17.27051049530833,1.0550864560020883,24.72966377214299,1.276522780129591
17.48648429129383,1.0579428348995332,24.444977288323134,1.2644534359366344
17.69396777050525,1.0575782317983244,24.120343931738496,1.2486393244735583
17.88460083204915,1.0713455745096159,23.802017609308365,1.2495064124991437
18.077024522699386,1.0721728760165903,23.45722982715607,1.2351359297574702
18.27540580135793,1.0842571402543941,23.13941500925592,1.2336400974956032
18.47158632597348,1.0843880476162533,22.79460063922384,1.2183886061974072
18.671797951567953,1.0893403212754096,22.44533541116953,1.2082897886430914
18.851670912600397,1.0989742027327767,22.131908609520185,1.2037701485359327
19.050870713274005,1.102545411016176,21.824183181099002,1.19310628392235
19.228786202419858,1.1088879760899228,21.50209579481077,1.1854980366117052
19.42090978247163,1.1098420740005674,21.2007102954601,1.172274037706143
19.61153039119246,1.1210684718213042,20.857588660544906,1.1695898119994343
19.80867145211054,1.130211758836885,20.522304144904723,1.1638956121732542
19.993841653389914,1.1283543180094882,20.19604374328072,1.1470520546337815
20.191964573840934,1.1429463454071327,19.869463768448874,1.147108507061096
20.385363968404455,1.1413443418315954,19.523735722119113,1.1303786943882483
20.56369328368442,1.1447700551759965,19.194551865425954,1.118930552685821
20.73767405989409,1.1561423547817566,18.87921395284968,1.1157226530170676
20.92265328655615,1.150585082200294,18.535809587835043,1.0959812016030142
21.119251378737175,1.163933802618544,18.203051386035234,1.093864982874313
21.316798224679474,1.1635753185774382,17.874789222474806,1.0785966469932515
21.520706900560988,1.168959491924521,17.5421323982299,1.0686336310664264
21.67060303684842,1.1711118630883408,17.19953099966228,1.055941808522382
21.826567323145103,1.1825098338987938,16.881601816530186,1.0522582799831988
22.027367164411285,1.1853682459005337,16.558138566451213,1.0406454779944665
22.18417715676644,1.1899290174097574,16.24654477843709,1.0304914946754251
22.363841727023846,1.1991070031236943,15.927179124522157,1.0245428708828832
22.541513235168846,1.203658831358983,15.615068378580746,1.0142769444787372
22.696070546047984,1.2024516326798345,15.312843756845377,0.999579493956356
22.857947778952216,1.2064958843056193,14.998516714520294,0.9895048059107284
23.022410346751045,1.2083124101169542,14.711226535030603,0.9775983985521798
23.216628834576245,1.2175181938090935,14.426382485785478,0.9717937651335827
23.374046507026716,1.2316058261686134,14.124356600401887,0.9694984013490765
23.54210857505829,1.227342716440014,13.834279305557576,0.9526933247154741
23.70547870699344,1.22900401250195,13.540546282194018,0.9406954455511947
23.852292285148764,1.2345221704299494,13.25207419050153,0.9318053722070956
24.022294137842895,1.2423571600073695,12.985904540035461,0.9248506554367055
24.169088866277896,1.243857990535291,12.720734538251566,0.9134556238671293
24.333866439318818,1.2470045950006219,12.450144625412397,0.9033281140986473
24.487945248106463,1.2525116499493063,12.196950267446363,0.8949274952321132
24.6252114525557,1.253038726358196,11.951936477764821,0.8835086181353637
24.772789045311544,1.2583319248318803,11.703170710060364,0.87558896745317
24.917817994137263,1.2784580697380983,11.448865024918138,0.8776319892526646
25.070577214874895,1.2715917181384788,11.210736293906944,0.8609240417333461
25.21009899852641,1.2702355258358073,10.976885690987736,0.8485195777704948
25.360897743113387,1.2787603031806816,10.749400725485573,0.8428987073590132
25.49544722790167,1.2774540356841004,10.529375964598135,0.8309425867496573
25.648601578976304,1.2848929975902024,10.31511537850253,0.8248841439896842
25.776001541905,1.2902937553944678,10.112048418105402,0.8177244649586878
25.909695754215278,1.2844254999810756,9.913172341388162,0.8038284604334069
26.043820241160205,1.287907454282475,9.71092404955945,0.7958917826387434
26.158353895816123,1.2868619569873556,9.514978885468814,0.785299602574477
26.287505360749684,1.2920040728242912,9.316907472629687,0.7785209788841477
26.426254475103505,1.2986486987586334,9.144802984921716,0.7728089888709795
26.5526754280394,1.304576532489366,8.966786187695662,0.7669710733265905
26.6546368617204,1.3068124256941727,8.802040103443503,0.7592534913488659
26.789314170388632,1.3163850377148467,8.642389374085836,0.7561435911425893
26.92716485182076,1.3126284367936305,8.485913050426479,0.7452058707540858
27.04828205265314,1.315114883040276,8.341390622081661,0.7382173127590353
27.168636775304595,1.3151421507331522,8.204465717864238,0.7303411025994296
27.299461268992246,1.3248092851993465,8.070561296614141,0.7279664171351664
27.40436999575257,1.3167927002624629,7.941093595553404,0.7160835461831114
27.542502642994947,1.331250167178341,7.81615610404648,0.7165852599437971
27.66211387199375,1.3323577995562863,7.699777415373534,0.7099364066781622
27.818907435856897,1.3297385582939119,7.593250464642893,0.7016538210730497
27.946100093740725,1.3377574149797002,7.493775956704958,0.6992816420130693
28.1157031782786,1.338776681873791,7.4016413386491156,0.693476764936193
28.236158861821437,1.340168182009196,7.319003182194042,0.6882312043397905
28.363806265923365,1.341068007994444,7.244184444862411,0.6833639697988967
28.468602080404583,1.3477865030779481,7.17538509215089,0.6818939902561809
28.574243779185682,1.355878500689905,7.1205057065652975,0.6816289846030078
28.715768908012542,1.3571239089879732,7.063426981211008,0.6780592205456876
28.836787915337965,1.3703197753747358,7.025519815067831,0.6807121909940457
28.936785660475252,1.3675342750938702,6.993999937236617,0.6761633602481402
