$D^a [mM]$,$D^a [mM]$,$I_{islet}^a\ [pg/islet]$,$I_{islet}^a\ [pg/islet]$
0.518695257230568,0.11489263977853567,3.0408577867756237,0.2331774351380918
0.5684688559231714,0.12774810941627887,4.073499073619517,0.3043789913511896
0.6400067509439924,0.13589229431617178,5.103555793272508,0.36008632036512267
0.7285547622123377,0.14439667344241527,6.1225419295142425,0.40543586474553234
0.8296735296930302,0.1545486303972549,7.133871300751607,0.4466805751403098
0.942811703918129,0.16409495915465144,8.11747456435648,0.48007355012891667
1.0655419209936619,0.1752610990638294,9.092125434358909,0.5135710380762927
1.1969592630283923,0.18643547437307925,10.04871141108702,0.5439815465093422
1.3356008312379744,0.19658997093299804,10.990478557237434,0.5691036877778847
1.4807657714050453,0.20820755531351662,11.91182997376069,0.5967746742839002
1.6309974347666232,0.2191319453236622,12.81406822475711,0.6210911381515584
1.7876400573718514,0.23073898206689683,13.698781582936302,0.64626058946671
1.9503868580728387,0.2414956131179585,14.562756460549156,0.6679239881744763
2.116524766939757,0.2510466598995878,15.420806456568856,0.6855809138233171
2.286278173898982,0.262363476720387,16.242857747889804,0.7076472748792151
2.458944432443755,0.27167756172659385,17.038062143830636,0.7236226163655415
2.638500615219187,0.28231459659872904,17.81367302140051,0.7424769466605142
2.8213437862505337,0.29349701084256896,18.551150096040097,0.7618454446682703
3.0021961827805277,0.3043542516540877,19.281165491991533,0.7800757124544327
3.185578808335791,0.31428938938349577,20.017199246966985,0.7962093429975379
3.3771663455236522,0.3221443324991955,20.68246608398326,0.8065497057208963
3.5682553329634374,0.3305247767496784,21.332569903227256,0.8173266692085648
3.7628623224927393,0.3389826469031506,21.966184028385282,0.8281881537712414
3.9607200776213936,0.3497611764586117,22.597227475491525,0.8445213146744057
4.158227614768033,0.3583589561276624,23.168382181670598,0.8551860325505252
4.3594837384547205,0.369733302950548,23.730692703619106,0.8720274654902229
4.5641793544984886,0.3765970614563888,24.269875666375558,0.877848576983919
4.76969016821883,0.3824491024201804,24.793134045882603,0.881246490955127
4.973965164894117,0.39385166625271506,25.281490139745276,0.8972724445419094
5.182057192168111,0.4014746725540306,25.79376545401841,0.9046459413744963
5.392476039554577,0.41060246229061853,26.241536120632453,0.9152352468688277
5.603809088575826,0.41960061924698155,26.67066091323414,0.9248914841375754
5.809464652919457,0.4268314272974793,27.080956480391496,0.9306602264531987
6.026376352063171,0.4326733672959267,27.458966068384996,0.933225969768007
6.234399843225945,0.44340108480281526,27.828666388243732,0.9459868934628248
6.45470912732524,0.4489044395511959,28.18483852373575,0.9475315689226044
6.672700780005903,0.45748479025443073,28.543206353434332,0.9553792292189125
6.894458416846963,0.46736813605984534,28.852306447633197,0.9657620807474578
7.10951620557496,0.47124864981704134,29.130274270132325,0.9632963545707284
7.3256097021466156,0.48124529842204333,29.400567380405985,0.9734945392957246
7.538688463399503,0.48795028889847564,29.663830161648587,0.9770000727457278
7.7574746951975975,0.49454484225376044,29.871867648035227,0.9800623794272701
7.980333745048206,0.5002517187351594,30.02887377894351,0.9805048238798715
8.195252228425751,0.5061412001877182,30.192889600485586,0.98112114538892
8.418851592378424,0.5139624285659087,30.341053186342013,0.9855655399904378
8.646079708544985,0.5220470400832922,30.470835986368286,0.990063064517289
8.869035704056577,0.5282825967653798,30.576790905064843,0.9908048536398668
9.095659134757206,0.5351309230207303,30.673079425612023,0.992685853158332
9.319192004785732,0.5414349933392971,30.746728186085626,0.9933508246534766
9.533603456239605,0.5506566597852648,30.808127629030544,0.9994770362250205
9.761127242640441,0.5566180712618553,30.837659840349943,0.9994537311056717
9.972792234216687,0.5596089920519611,30.8641291834674,0.9939689545349009
10.198827022651066,0.5657620863690673,30.860164990220333,0.994137054068984
10.416304860309495,0.5748536592690446,30.864061558714063,0.9991968467219734
10.635068504257063,0.5783927196709909,30.854643614659096,0.9947488028766656
10.863851323318242,0.5852034385803253,30.824857551848805,0.9957043377779617
11.08414467871497,0.5921465823648708,30.794094492333432,0.9966672398420277
11.30468370834578,0.6012977241257449,30.716223016589534,1.0011698526212283
11.518331094128936,0.6071617160423304,30.621455847196597,0.9998657207288879
11.752332066865119,0.6173854876392075,30.533363598768414,1.0054767155421436
11.976632876497366,0.6153218473274298,30.4459279394162,0.9908516284974291
12.189495941579136,0.6197794516222431,30.34373761202762,0.9873730129072592
12.40525341478553,0.6245018021767266,30.178102095504045,0.9840835909398996
12.623082872739975,0.6301676269932951,30.019866235987884,0.9818245086233742
12.839298523450696,0.6384446320411284,29.876301140670538,0.9836851720223785
13.076108607403306,0.642996163101588,29.705543523859383,0.9795001919202113
13.29287825530983,0.6528507904297614,29.53908759830551,0.9831779546509122
13.512164526982943,0.6546839162813312,29.352398440324084,0.9748604645757291
13.720528873914208,0.6606908472343961,29.141198672056007,0.9727741046513436
13.935856149050332,0.6656553330717652,28.91665777012095,0.9689300197955997
14.146505025473475,0.6675212946489668,28.68133967834309,0.9604489904379407
14.372118193511241,0.6678518079006402,28.432654985355494,0.9496039342721542
14.603912472845321,0.678015306535515,28.191038609838184,0.9524197279455416
14.808879318903834,0.6865644751242158,27.930499899824127,0.9529306525989405
15.029491455317046,0.6924393563140337,27.700090110008638,0.9499213981479672
15.234488965227913,0.6964754413982073,27.449965975955237,0.9445500447832759
15.445411311712524,0.7012206764600581,27.182949574990975,0.9401247872404446
15.658361529737443,0.7040231893053458,26.92595573770394,0.9329156210748814
15.850960435222783,0.7099223808328919,26.61287303305327,0.9297952399556852
16.063015293146908,0.7132595039309798,26.329475661272877,0.9230604273676816
16.279200015977008,0.7193669490413424,26.013626942119622,0.9196414008650438
16.47734316228396,0.7216664464953724,25.74470232564366,0.9114430436099391
16.67161125945694,0.7308776400964615,25.45163277325895,0.9126021972264374
16.87015010428555,0.7326572866675125,25.14187014292026,0.9041064145668511
17.061409326393598,0.7406257128166497,24.852506624081283,0.9032542449214026
17.24621882123594,0.7433721038450506,24.522398981376007,0.8960308050970266
17.440380881661675,0.7451023074257153,24.22481406525697,0.8875230313630192
17.64663445754602,0.7477506152582549,23.91603009257052,0.8801087057150656
17.848550485377096,0.7568783496931674,23.59723644882576,0.8800169575719802
18.055075181356003,0.7587945044567312,23.294439385127955,0.8714147039334001
18.258067680043553,0.7675357152158234,22.945411066141467,0.870470449307371
18.470094974728898,0.7709369805954233,22.61631735362608,0.8630164941770536
18.65533414404563,0.7719180392149804,22.281287129854668,0.8531120938667376
18.840781338757147,0.7687573007233691,21.97573549140626,0.8392613519548872
19.032684710919803,0.7780771803885715,21.613245087341983,0.8389566743406053
19.230906897999645,0.7841147187531813,21.26543540431544,0.8343471652021576
19.439706387170535,0.7871884987914778,20.929532414692833,0.8265378105251022
19.610624740473583,0.7910177260551726,20.584795685322412,0.8197801122965606
19.788498803870713,0.7960360455325902,20.236655773273146,0.8144414023860352
19.970358231805946,0.8018503584252892,19.87304595444391,0.8095974232201442
20.161203895833236,0.8002045730095104,19.523825277623004,0.7970079643104825
20.337179827883904,0.804325439360842,19.194791751964146,0.7905439191686764
20.546990770317386,0.8111792637683002,18.850041717233054,0.7866597793125268
20.754445371605378,0.8129524219082557,18.490005842317547,0.7772139989776582
20.944720870623936,0.8165365303544115,18.14854132544391,0.7695721386143883
21.125411632935183,0.8151824854390889,17.804164619483394,0.7576451645687425
21.29801368527865,0.8243857629472234,17.469115390406944,0.7558034094515539
21.47236717047689,0.8285784019691235,17.143773638408273,0.7493803839921619
21.680517899510935,0.8320498054229313,16.80975629889541,0.7421176867443328
21.854318020153062,0.8324047587432282,16.46688052877068,0.731795098818409
21.99529132299989,0.8447531813757793,16.158346067928747,0.7326275967051896
22.150133903120654,0.8437031096900363,15.830875079752166,0.7220406141097645
22.322156386431796,0.8410937907129031,15.522576856214785,0.7100358925376693
22.496883593729308,0.8467765958447013,15.226221139009436,0.7052274559299015
22.662818202889614,0.8504138788877458,14.898548119717754,0.6984451527633346
22.831898585589784,0.859256631322664,14.592586088334677,0.6957272473648096
22.985799454319963,0.8578295848136128,14.286154829520463,0.6848283264165062
23.141767749244302,0.8611948871437763,14.001572032153547,0.6781360909792127
23.295252157772275,0.8608412977982149,13.693602031734216,0.6685188781359126
23.459837474235968,0.8618874940930988,13.386384382402406,0.6596986039475693
23.62528090012154,0.8720660503810982,13.102350043181934,0.6578869500654014
23.770385329899906,0.8749227455259897,12.814877307836024,0.6506770263720703
23.917876575440143,0.8751433315054234,12.548930161271446,0.6418474111702418
24.077853350539442,0.8818480661266275,12.265753535288264,0.6377516020974336
24.21191507829008,0.8858673803212301,11.995919382660981,0.631537786332115
24.36261728316091,0.8846956480574808,11.7256512193919,0.6218135540672782
24.516363676463765,0.8839087820279747,11.464795324679182,0.6123852626353079
24.68039003744275,0.8919942064563784,11.213996008311408,0.6092110841009352
24.825095325327435,0.8921258314575202,10.966692861743718,0.6006582356694901
24.95620340881636,0.8953529938265065,10.729582022575809,0.5945131594792161
25.10479807299819,0.8983151927488098,10.489131348714551,0.5882686629076226
25.247598704932923,0.9006429716123454,10.253746841224938,0.5814984942776202
25.42565622254637,0.9054469955528026,10.025418631784445,0.576233182445039
25.571696035319075,0.9099870690601116,9.809003130522585,0.5708879366923506
25.695220753449227,0.9085780064414474,9.596210460933557,0.5622461457340073
25.824756492900807,0.9135686724733102,9.390404378513386,0.5578304884036744
25.96204086080535,0.9143778399054111,9.193548112413882,0.5509329156024928
26.10579136580388,0.9128921258575964,8.99641018971193,0.5427354563829648
26.226868988816992,0.9146383868157737,8.804553751786633,0.5365604568050755
26.340516086220045,0.9208691209736775,8.612239445897478,0.5331825248240998
26.476795969194534,0.9204076548069715,8.43495057546604,0.5259667844483946
26.59769814310688,0.9236839130224859,8.255918662180878,0.5210263401141456
26.69543208598581,0.9247749679598932,8.078277335395647,0.5149645312505824
26.815753917515284,0.9243512585495788,7.9223398332347,0.5083518847229294
26.94580949297423,0.9360219188234705,7.769238771340528,0.5086060340161408
27.046643785758405,0.9333123992091433,7.622700207363034,0.5011295922438095
27.164427324602052,0.9252477540953955,7.485401298557688,0.49115368673378806
27.29314798525687,0.9370417274446043,7.350310242796743,0.49184961158079377
27.40761189618565,0.9389759520463647,7.226425545748494,0.4874138315802686
27.528746331843916,0.9463127482657643,7.1053085435959895,0.4859909559023532
27.603874574323225,0.945500313769578,6.987836564703245,0.48061971798916187
27.729156555595203,0.9393413492847151,6.879641318064228,0.47277962094056686
27.85486322837671,0.9485130274251737,6.776795104210596,0.47271339214378744
27.965313358745846,0.949292096472003,6.6858225545982455,0.46864279429571487
28.084985725883023,0.9537893928466851,6.600141972657407,0.4667472560301626
28.211203798454598,0.9551325243956648,6.525868173235008,0.4634982000498038
28.34030631057806,0.9547247642981215,6.447531969710341,0.45955408292170913
28.436696964035313,0.9569901518398995,6.381791883085666,0.45712621776598883
28.5336802161145,0.9561467477974432,6.317101762443307,0.45353759278407013
28.65940366151855,0.9526422291560612,6.262155056384227,0.4488402649003587
