$D^a [mM]$,$D^a [mM]$,$I_{islet}^a\ [pg/islet]$,$I_{islet}^a\ [pg/islet]$
0.5187617611430564,0.20903396262290286,3.037973996969128,0.41881973160475866
0.5686267069300615,0.2523176027354236,4.074674172899505,0.5969877351001327
0.6394290177210753,0.27021934595319413,5.101683869919603,0.7144950997049088
0.7274231877962012,0.2870473790221268,6.125138316691128,0.8058725729372718
0.8285292257557195,0.30998852521037346,7.131044737822171,0.8964761282376837
0.9417264564695267,0.32698983493246936,8.124529913028551,0.9572767325990648
1.0637852330516497,0.3493368283364512,9.101181644759858,1.0247479830803605
1.1949144919117707,0.37174048880491967,10.061571876231127,1.0861218512691584
1.3326017157697427,0.3909198310906451,11.00141542375816,1.1333856516638456
1.4774593511922647,0.41553512592737957,11.92331481620451,1.192971600188712
1.627024571069014,0.4377701104948969,12.82377790702987,1.242795794682571
1.783791282750764,0.46094648895644647,13.69404030255196,1.2927387936260453
1.9454772624643208,0.48302713215076104,14.558852311140345,1.337332633173998
2.111825542009827,0.504252357633348,15.396762185310267,1.3782080066778695
2.2834796861376443,0.5250363689286194,16.21464268057321,1.4163674668855637
2.457311734478182,0.5424757444832244,17.015755825872507,1.4445514642093944
2.63139209550289,0.5633717907366634,17.783648756516577,1.4815731127720198
2.812668130035259,0.5844323019623289,18.539513312322956,1.5180967953648032
2.995254106455219,0.6049428373264889,19.258579675246718,1.5518566397285398
3.1834896354973834,0.620092111659091,19.970482218755752,1.571059412578809
3.3736316218028066,0.6394646410302578,20.64437284808749,1.600224459545469
3.5682443492771516,0.6618350577457774,21.313820006154707,1.6359204590543008
3.762262477550236,0.6776445395178259,21.9674257207754,1.6551843355953482
3.9598905350135953,0.6977340160395545,22.592535731507198,1.684786280577015
4.1582262057059545,0.7159253230699442,23.18513175273283,1.7087657714785134
4.35659163276203,0.727843624013569,23.761134825981173,1.7175331626661028
4.559183783964586,0.7498582619846808,24.3008168417837,1.7497755735453457
4.758864220861966,0.7692132080452169,24.802066923205512,1.7745756713776863
4.960196111130781,0.7835232247146475,25.302176626715696,1.7876295432958524
5.166321233024186,0.7998632115870715,25.758720154841967,1.8048955702713798
5.370790574438036,0.8150868923957917,26.211753064905107,1.8188833404056475
5.5771282958317245,0.8287920623515891,26.65177398881785,1.829739123256984
5.7896246029568035,0.8471108609086526,27.05369098618419,1.8501045103114693
6.001602088988586,0.8611550491125608,27.444421535151715,1.8601702738026287
6.2103178035505655,0.8770826893225732,27.828373966411036,1.874613059213631
6.422476637853285,0.8955746404045981,28.190857331831623,1.8945468790605458
6.63593336653603,0.9094244693440503,28.53948976333644,1.9041204797528257
6.854869374354313,0.9204344378368345,28.857078728328826,1.9071673695932223
7.077667785178994,0.9399174245380902,29.168033478106715,1.926932646406714
7.294842583254675,0.9536569514127713,29.435426910956163,1.9344414815239694
7.502791508552457,0.964161845597224,29.640409397484568,1.9351789669888562
7.720039307444668,0.9797020257812702,29.895699869448627,1.9461762342667637
7.940439337961822,0.9996698537735687,30.101349826590315,1.9654905641972427
8.160688339908024,1.0098418672440155,30.26836729154596,1.9643352487754395
8.377069985884262,1.0232468074921548,30.400012893826315,1.968781479963427
8.599517297885647,1.043306062478152,30.539493826500998,1.9856920065213457
8.828735914986257,1.0519595885227537,30.681956041470002,1.9805023822875223
9.044431429809395,1.0653823623677776,30.793337394676083,1.9846574237753345
9.266946066319951,1.0782499285386031,30.853351380249844,1.987373419719404
9.486771668496218,1.093777610922174,30.914262927485872,1.9940710792273828
9.709070022809911,1.104538052285615,30.978257603949984,1.9922298043700235
9.924663547483412,1.116499320140146,31.039569637926448,1.993065272835724
10.14447998257222,1.1283345346031277,31.048654580883518,1.9934240239078302
10.362428695961832,1.144818773848767,31.070484016019865,2.0013547667811604
10.587886761813374,1.1515571401608455,31.062565906926462,1.9919322618438544
10.81430137878757,1.1613691531020884,31.065997700561386,1.9875273023240714
11.03451451996825,1.1833814534331015,31.053559093145353,2.0042219738766534
11.257482618066925,1.190448517814414,31.017854000974616,1.9952311065358428
11.474849217774786,1.2073215693222834,30.96165254872402,2.0024351097708424
11.69550529271105,1.2226066304732994,30.861825988777916,2.0061067717702614
11.92144694540027,1.2243421122349463,30.75073710540454,1.9865388470714054
12.140981638207432,1.2383218025459806,30.638908898542883,1.98696586925602
12.365945197151259,1.245345795750728,30.513554694539256,1.976136276345533
12.585277132316625,1.2630996142241404,30.374356897835032,1.9821383177300183
12.798852367437068,1.2718673259434607,30.243620356121724,1.974236330110977
13.020070476462196,1.2845522032304086,30.10262496361591,1.9726251065841778
13.235436992684292,1.2954688398180896,29.905074342518958,1.9674277595738927
13.454574612121466,1.3121197730027883,29.72809863379495,1.9703224992659605
13.669167667856136,1.3128677123752688,29.502587462385225,1.9489956410706046
13.896819355227475,1.3302902174538798,29.28130843776855,1.9518165871737496
14.116269605740548,1.3365535663865709,29.060348970012154,1.9378604310009437
14.343856284458456,1.353878502596742,28.837643796840236,1.9401576105704055
14.548139070371361,1.3622961083388305,28.630301490890552,1.930106835584868
14.753423453638693,1.3706495390824758,28.38442489040003,1.9206314318766011
14.969841832893042,1.3760999036688308,28.14567252458721,1.9064531486522247
15.18107849601,1.3874925756910668,27.91681496799891,1.900635573962676
15.38457178005542,1.3940878906077763,27.649622013448315,1.8882820695394316
15.595353150857168,1.4066277355555579,27.357886770990273,1.883197748027833
15.80055926830948,1.4116794381742963,27.068992503500713,1.86748081687095
16.00789760855136,1.4285540629886473,26.79269163634096,1.8677839871676758
16.217394733205968,1.436460177146452,26.51248325718191,1.8561761909666306
16.43743845528667,1.4442787966050377,26.219249467779026,1.8440712148086664
16.63399669173926,1.4456291624248587,25.946692048909323,1.8241206435163768
16.847584999644006,1.454542092366341,25.636599979651127,1.8139930267696653
17.04043199180065,1.4743823929232795,25.336936204214958,1.8168761220999148
17.247817880319037,1.4859639593146252,24.993088239842507,1.8090724292971343
17.453030857271024,1.484554964398066,24.674926433847578,1.7847179706557028
17.658883034967626,1.4856599803229293,24.33037494528519,1.7637775114429142
17.856011184614662,1.521668028679556,24.027795865140895,1.7843920254012235
18.02719869445005,1.5119904141941296,23.690106134196846,1.7518707522900245
18.22004164924632,1.5211900693114317,23.368586280637206,1.7416095318404732
18.407988091235854,1.5392134451937238,23.036590227165295,1.7410172295120738
18.616495514694915,1.5395648271052764,22.700959338651426,1.7196119771440024
18.80572389603519,1.5488703095016205,22.363416541062566,1.7081708062455867
19.00317491777189,1.5546083572260523,22.016058329726246,1.6927357029060137
19.214851061134162,1.5604034999770338,21.64494608090073,1.6764528218661017
19.406671424836635,1.5670842602981605,21.333694393370237,1.6614960765264797
19.600644640479594,1.5730759345613552,20.998168500990133,1.646976582936105
19.798857726281632,1.5918461275553066,20.665797221972294,1.6452878364028856
19.988838378498375,1.601230975181105,20.328346164530217,1.633582983731329
20.174915402283073,1.6054948195799068,19.973262389158393,1.6165062171945557
20.34612957432573,1.6058619811742258,19.629023558477993,1.595669672351989
20.523992404718484,1.6031996761412048,19.29247788931873,1.5724692763594939
20.70290306424456,1.6211716436649883,18.94686273386118,1.5694601504313022
20.898740375093432,1.6275673197402982,18.61584053127637,1.5546462678551485
21.07650594389287,1.632556363135001,18.27863521544847,1.5385737509618085
21.28027911553007,1.6448427963802308,17.95599522326642,1.5293821502592053
21.439566939380068,1.6598076757827902,17.634117281550726,1.5228952496115018
21.63873308175063,1.6514129595906477,17.31007020796771,1.4951330222209644
21.825264689263957,1.6670265718104114,16.99319121685335,1.4888831247311736
21.997682914071554,1.6822186771328673,16.68382889553148,1.4824676051606869
22.18553139834579,1.6802128442200253,16.356756961003402,1.4607143747044367
22.392628073596242,1.6851897534626015,16.044529891149036,1.4445441782025543
22.56335710145062,1.6902037212840908,15.760908500178019,1.4291952962249952
22.748569432877797,1.704403548735753,15.450706659490477,1.4221550423831266
22.925548919282566,1.7054135224711897,15.158686230912304,1.4036354547998895
23.094298338540405,1.7167703696806076,14.8578112903582,1.394013456396761
23.273326949975846,1.7229864334581448,14.558650407162334,1.3798388562337445
23.435045292324734,1.7227645538296654,14.266239032236008,1.3607214644135575
23.604719630884578,1.7374944418787512,13.98319229480474,1.3537976504851492
23.76175858290168,1.7351990897282619,13.68627024374486,1.333440079525722
23.927138288672175,1.7612158358709835,13.402608385420443,1.3347589982395438
24.131905953383995,1.7532311182529114,13.126554584559672,1.3098057384133157
24.28891111311125,1.763966823759456,12.853012684428219,1.2993017547925836
24.41203331620419,1.7583437601097291,12.5921989994684,1.277841102502704
24.550050437676138,1.7713354778200547,12.34314680730239,1.2709072552629261
24.725571440011798,1.776461584689519,12.087726178685688,1.2577074019547179
24.86093075349581,1.7870724442879375,11.853259890800887,1.2484596666791152
25.018081735769833,1.7980613373642023,11.628671960723738,1.2402865110866599
25.174488920216202,1.791324701913249,11.408939602833819,1.220039898431156
25.298857576488647,1.7918274278578987,11.188226540610266,1.2052498083702268
25.43056777396786,1.803301222016992,10.961697656672493,1.1979451393951122
25.58768131169738,1.8074404638994,10.747185231526823,1.1854217684261252
25.743549191601275,1.82185803424731,10.544012535019002,1.179649679914022
25.911639103301788,1.828219785065124,10.3375668109315,1.1686853634347325
26.05968508551956,1.8190887818980883,10.129217347544127,1.1477452617031452
26.2154099591011,1.8329007408836357,9.949072853205248,1.1420725018397848
26.361268765001647,1.826915201019718,9.767983667469574,1.1246853034115292
26.49879983150659,1.8291434533511024,9.595661346746418,1.11288186446132
26.616880842886374,1.8354840832947983,9.429781009295251,1.1041337995889748
26.76706749037496,1.8425962320696638,9.273230386728546,1.0962502096729168
26.895338082684397,1.8668989971645105,9.123498655696677,1.0986581940667037
27.05194226167429,1.8632230962041814,8.973672569404183,1.0845916015368713
27.193737777991664,1.858501743676781,8.833449433486042,1.0701357666296756
27.327617742157386,1.8683619758428858,8.69735569380807,1.0647259851631923
27.478327771015955,1.8693167080221438,8.585813594387567,1.0547708715391018
27.593720614317355,1.87157903912351,8.46885635207924,1.046391519823604
27.725741504197583,1.8669316290511533,8.374936211867732,1.034840081739478
27.857842015231032,1.8850363276893791,8.27953970796193,1.0364224525923296
27.971691631588232,1.8977916622247135,8.187967514014623,1.0352326049927836
28.077218409333835,1.8969690105874877,8.10173148771852,1.0270229006512832
28.15951835596209,1.9021422628483409,8.027577973207846,1.022828220922273
28.272423950281222,1.9068187205033431,7.9583736131654295,1.0189826032938278
28.377976613391365,1.9190012965106285,7.891923813120511,1.0190963005732556
28.484328414587708,1.9142423000611133,7.829261502581144,1.0104418239671598
28.61718226470068,1.91652486688823,7.777056497569755,1.0057744562240578
28.738254593951797,1.9198576069245443,7.73150225232266,1.0020560854074752
28.883276122153276,1.921080923024378,7.6994950573505285,0.9977068473520149
29.003704870007322,1.9222540228784017,7.676423526352156,0.994107337216637
29.15405193239677,1.92720715445305,7.652276756476189,0.9927836188033953
