$D^a [mM]$,$D^a [mM]$,$I_{islet}^a\ [pg/islet]$,$I_{islet}^a\ [pg/islet]$
0.5189945371737836,0.08723002031796245,3.0391397442632613,0.17976880367341536
0.5686644274062015,0.0915870305607483,4.073581006997904,0.21938072227498975
0.6398254075237789,0.09690956320315482,5.105135020956025,0.25702954424777386
0.7275359512776898,0.10251609694183254,6.123245527912262,0.2880209492706795
0.8289293222714196,0.10976621740888579,7.135977443587738,0.3175080403689418
0.9414812651895486,0.11659500991483335,8.12746225538627,0.34143273290727194
1.0633744903692208,0.1238272569394108,9.10010474632286,0.3633391779943596
1.1926670581208205,0.13189625442437874,10.049429689598494,0.38547818795444083
1.3297685917814255,0.13971622447995027,10.978020231407934,0.4051796756040887
1.4743933537898855,0.14706503632248044,11.895184154596672,0.4221893918875244
1.624793253160304,0.15546532188759085,12.795777234226207,0.4412695753437162
1.7813107559773,0.16278777881833426,13.691046434380228,0.45654526406317053
1.9417972829633519,0.17102140671925165,14.556923782825338,0.47380771411637634
2.1072876100130102,0.17816160165990783,15.396705036068,0.48741314361157617
2.279126928308349,0.18542451075254193,16.200253303902947,0.5006487910555427
2.4525117022524974,0.19250380807853493,16.99437329229076,0.5128959230458868
2.6299813056256665,0.20000592434314962,17.77828856931436,0.5261667761887652
2.8111682142325294,0.20704435788816994,18.523259363267574,0.5378348699020554
2.995236390968795,0.214435043641592,19.261740812899664,0.5500702184095053
3.180155173229196,0.22099825044573387,19.965329622179276,0.5600316891969868
3.3665858417079786,0.22821173741835998,20.66206699331518,0.5715273946735997
3.55431516743202,0.23507592398310148,21.326092722920396,0.5820292104107793
3.747911407440614,0.2402040804183637,21.951516271029718,0.5878083435933216
3.9409754723030557,0.24645474375451112,22.581050541941853,0.5961474937045232
4.137904277906627,0.2527891473025686,23.152476955232927,0.6045419734633934
4.339450331087954,0.258328190124883,23.704707320859825,0.6104740664000518
4.541999823256072,0.2647969086600099,24.236534581329305,0.6183905033221029
4.744586126607116,0.27239382683459257,24.778639825509924,0.6288993376449319
4.951474312322323,0.2774431886829823,25.28790196863722,0.633525609862023
5.156216889872694,0.2851825172445502,25.740356015795346,0.643945044537762
5.3571328407490375,0.2890261290573535,26.18515046329118,0.6454038949562482
5.567167049458126,0.2937132569857634,26.613816534943066,0.6487941127995389
5.7775561768256605,0.3011239991983211,27.002275109064055,0.6577987624006381
5.988728041295461,0.30527521753584336,27.386160851183906,0.659460633013729
6.1987346194957125,0.31166235080601734,27.785600874938922,0.666163535327934
6.408437273626038,0.3168067065222265,28.148777874277567,0.6703319091676172
6.627062095948219,0.32131611472167804,28.492872783958415,0.672840861272604
6.833587815885006,0.3271524034277171,28.818719299438424,0.6780872623780939
7.046278906940279,0.3324207229224098,29.104168886393005,0.6821406915960877
7.267027658229579,0.338659956596232,29.37973951711752,0.6877042028438675
7.485399126739583,0.3448384391741487,29.633537475213206,0.6928480424507261
7.70635591936627,0.3501258308115425,29.83756014448012,0.6959297152060852
7.921434780126707,0.3535037253399776,30.024329921671015,0.6950383460898159
8.136540186658289,0.3592994807363248,30.21373351545362,0.6990354295330231
8.359923149588587,0.3638635782830472,30.369610279726,0.700466454731857
8.583276338231391,0.3670399715185509,30.515769706177622,0.6989571736273464
8.795448841642472,0.37260402744222987,30.648380355960132,0.7021631764129054
9.01162362355578,0.3773181701604834,30.74234977746163,0.7037147132351491
9.240608148536543,0.3824951692555478,30.813137883159715,0.7056550920392658
9.46565430675074,0.3861671441550424,30.89200583760138,0.7045677320953306
9.682540611179943,0.3911704840612635,30.9531466853408,0.7061565841897796
9.910685221591494,0.3942006061922348,30.989368778474518,0.7040734760707127
10.14105998370613,0.40043992194476896,31.02355177823164,0.7074327561451335
10.369542441617769,0.4071776455962406,31.01816679439594,0.7114401416376587
10.594595045790932,0.4112018027934834,30.99831845108147,0.7104845313073929
10.798832179433862,0.41683629796801425,30.98713817429521,0.7126603668349912
11.02010282924861,0.4188443447791087,30.952523936303738,0.708785297547179
11.243031693620267,0.4242005187076507,30.91212057096099,0.710282798294154
11.475289557472165,0.42737423713123657,30.83416131527306,0.7077967141211989
11.695234836626819,0.43076186909445213,30.748802537505288,0.7054707363238767
11.907212886158474,0.43581537943852566,30.633052709942962,0.7060181622001549
12.12009604549419,0.4385407644592073,30.52911752756896,0.7028263268928123
12.337913535635039,0.44119254282935794,30.391429511489875,0.6994460970599982
12.561169629886807,0.44819745757410295,30.26978980724525,0.7027804282840276
12.784454432938276,0.45427911678139665,30.10200146254356,0.704365700952145
12.998066473094141,0.4539979930219784,29.92972623671084,0.6959294211321059
13.224596376090032,0.4584909445596643,29.75648022485966,0.6949153948765137
13.44783438273396,0.46110159189415856,29.58939210402947,0.6909562970584011
13.676780637142896,0.4650414878579332,29.385979045060754,0.6889247605638349
13.90514007545235,0.4709928886468586,29.210919258275233,0.689704354082331
14.14087960994018,0.4774354388083466,29.000854330885556,0.6910782390231706
14.346115230320596,0.47976147262135665,28.76433663758647,0.6863585598406273
14.561095214426478,0.48201940194268045,28.53919537417131,0.6817946133017292
14.765752083969307,0.4860004135848983,28.300554495173344,0.6797179791354978
14.98337607750381,0.4883708314081744,28.05166224649386,0.6752752803600219
15.18809230245242,0.49159089401953826,27.769578212888845,0.671818703109196
15.400869647540114,0.4970896434588257,27.511408008228614,0.6714055555534169
15.61840764466593,0.500490289533522,27.261278893046637,0.668172937846104
15.828590439772507,0.5012042194870134,26.993662971298992,0.6613959106945689
16.043342215156475,0.5063175401868072,26.70365838867394,0.660345913404302
16.24870722605131,0.5111742775281559,26.402639185444464,0.6586847268852316
16.465330976172304,0.5164926311431377,26.067485096312822,0.6573339755020381
16.666643494341166,0.5144044161030099,25.772283231719676,0.6465532528218031
16.87059355644141,0.5196669581978862,25.46288541489802,0.6454063210082003
17.07949143023434,0.5223571660754921,25.1404193152569,0.6408271453497703
17.290299700598567,0.5277402093685684,24.829613096551736,0.6394717051125998
17.482867473675146,0.530364233427118,24.522775490665,0.6348959121483778
17.69979011306356,0.5329679750556101,24.18043173492408,0.6301798328580207
17.91123003883294,0.5366561217852489,23.848090697783334,0.6263814959017016
18.111970410577964,0.5366887883829142,23.540505054849774,0.6185826111390669
18.31254665734582,0.5440352166698773,23.193610044055532,0.6193264393565585
18.504475426280703,0.5452842826818821,22.852904637445185,0.6128462829339504
18.71184663725815,0.5477003682364187,22.516371199877963,0.6077651593611123
18.9220327327411,0.5497628237860115,22.170418288242967,0.6021190742204593
19.115204554653786,0.553834291336095,21.848172737336217,0.5988109695060875
19.3101814392624,0.5575326950954528,21.47829074623616,0.5950539273289045
19.509352234543492,0.5593081395205178,21.140460340491273,0.5890701720654329
19.69925128684574,0.5569285358419418,20.816731657704533,0.5790288468598462
19.889680540098414,0.5614399181784914,20.499367590851783,0.576460864309586
20.07503203565021,0.5694919728780737,20.165164706024576,0.5773994430822413
20.27210448158048,0.5729091306453737,19.858480590002802,0.5735107404090962
20.485772008067784,0.5750309181448631,19.508650551260956,0.568084828700679
20.67671179425609,0.5755692245833764,19.194175926246974,0.5610034711418825
20.875271905274392,0.5784345248768994,18.855817968720118,0.556411619232771
21.05298643671461,0.5852870319987014,18.51503833087043,0.5554902687688532
21.22824265055621,0.5829204889762507,18.189201239193235,0.545922096802599
21.398331622486864,0.5884936244250488,17.877349263267824,0.544123815869746
21.575530495698096,0.5896297525379915,17.555636071435547,0.5381855745048907
21.775976692935668,0.5899696912957569,17.21637048842785,0.5312052044703589
21.95662858574246,0.5915095124870391,16.912047733673006,0.5253479190229122
22.14187135102632,0.596723558677767,16.575065633724638,0.5228088128798066
22.301112011538923,0.5966270725270624,16.265345000288352,0.5156129165906608
22.47312127425162,0.602905637927981,15.94923545825851,0.5141676668678654
22.649226302428552,0.6058469524853289,15.631270621899219,0.5096083492905279
22.8178952238848,0.6060124102033474,15.323254140277788,0.5027451220946767
22.973293447876593,0.6071397797100261,15.021802865218138,0.4969078490218135
23.132532449894825,0.6086442089243941,14.728477823477052,0.49153299092832414
23.30888735713501,0.6137565185403158,14.417681758736046,0.4889164297992219
23.460525023769538,0.616505901462645,14.122239522040584,0.4842669868522953
23.658230222413195,0.6184698583750157,13.846816338328155,0.47913783482095906
23.813014845197088,0.6226585790272667,13.574436810354866,0.47583542102996773
23.960835918985243,0.6259905407732071,13.292719787977813,0.47201613241749635
24.098712613107484,0.6242699415305482,13.024690243612245,0.46445637909095416
24.257037397910388,0.6273637750646405,12.763998438213399,0.4606757083773069
24.40156878386384,0.6279864045026828,12.495769630819957,0.4549624370042074
24.55026370059904,0.6315585515146117,12.230408530630553,0.4513671701687355
24.701655845150466,0.6286797493799818,11.988405181692945,0.4432843556156995
24.81322322631553,0.6285646159341669,11.739747801459096,0.43749706216711487
24.981271435240032,0.6293600666481897,11.505224785866789,0.43238484782034614
25.134538348540932,0.6350288083444641,11.272852733539281,0.4305159244837123
25.278766101182054,0.6385915881974169,11.034980069789995,0.42718779629209847
25.429225253637984,0.6389506244676366,10.817533642820866,0.4217979566330437
25.581376390253194,0.6381460520461014,10.58962554592582,0.4157163520826059
25.725471673157944,0.6478287698253012,10.374894984386259,0.41645572324622865
25.842376864728955,0.6468078249156282,10.166549014822515,0.41048396856796737
25.978754322061405,0.6470415368932843,9.959126255317836,0.40545031109157137
26.1063042540463,0.6495881328223129,9.765324140267719,0.40195482447012554
26.228362296082203,0.6469286962037438,9.579402213069152,0.3954554564454614
26.366511251971588,0.6509665450614992,9.390483398015808,0.39310271664467666
26.488423743873803,0.6541393249126647,9.213934595289242,0.39021427531825853
26.633261666406007,0.6538379829163141,9.02565069349722,0.3852457973489389
26.75693209975216,0.6593296559224026,8.847828723864945,0.3836175105737395
26.8858682726785,0.6528851813892077,8.694568297003235,0.3753609227594125
27.001472807458484,0.657352508709041,8.537654375612913,0.373712680192454
27.106701807216133,0.6578443778046468,8.3862214248074,0.3698657524734621
27.240473514002854,0.6574817030857645,8.257200773008863,0.36572141297259636
27.371498480119012,0.6643203773178784,8.139219713988767,0.3658630749012225
27.47096414328386,0.6621110122471324,8.02396734533866,0.3612351306892919
27.58398340825814,0.663629074011617,7.9038121853782615,0.35872592565398553
27.72003693864677,0.6684552276439596,7.801626814493913,0.35800167316570336
27.84967450137497,0.6683029702023279,7.6976548513975445,0.3546686360133682
27.99212117347359,0.6677067653057615,7.593882991626617,0.35111657980817146
28.118288863612474,0.672564942464903,7.508946305884055,0.3505929179263538
28.236675200368833,0.6737844176359854,7.429354388583954,0.3485006524599483
28.353838263834998,0.6760414147805192,7.36711315808169,0.3471994305378358
28.460215651727133,0.6762352301504528,7.304604214924306,0.3451213954439198
28.58173629683655,0.67574942153965,7.253410044063703,0.3428073452306599
28.726136043717116,0.6771127207528529,7.202316650739928,0.34149295753215264
28.822106442959925,0.6827360408086116,7.166537789293843,0.34249924935269366
28.90408311564075,0.6836393392927473,7.132695822464273,0.3415073858282882
