$D^a [mM]$,$D^a [mM]$,$I_{islet}^a\ [pg/islet]$,$I_{islet}^a\ [pg/islet]$
0.5188259205482093,0.15546218261405967,3.038462562743916,0.31261644357386104
0.568791698259966,0.18052529104791296,4.0749442676878855,0.4282267999511843
0.6402371302286688,0.19222019893598974,5.106467463134054,0.5085836636203124
0.7286969024609092,0.20414561748840906,6.128692382592289,0.5731277101841937
0.829825933368108,0.2168013773694369,7.129458310481868,0.626657287334522
0.9422111602503109,0.2322158559328946,8.115830915204597,0.6793122406130387
1.065251830594785,0.2479735965916201,9.097121925869295,0.7267988081827645
1.1944426814406228,0.2636361210491211,10.058234723068024,0.7698573984550805
1.3321673255053201,0.27929814659807195,11.005648964900637,0.8098211363445917
1.4767184383737533,0.2933603892582541,11.931410868287534,0.8425165195802132
1.626536309967191,0.3089759906488742,12.840939271043519,0.8777214500532211
1.784056469298667,0.32586327986643376,13.71664789903747,0.9146421605543512
1.9456398019872874,0.3411141945065568,14.59004419399709,0.9452886491349846
2.11117010534637,0.3550080742123438,15.454813618515205,0.9716696131858654
2.2792978861449242,0.37172781896765206,16.285588138618735,1.005211449125166
2.452040921909355,0.3854619811881131,17.091540847825364,1.0296493996277456
2.631537944947757,0.3993586829493957,17.873946131437663,1.0533920391771103
2.815414047575331,0.41279923086172104,18.630396696949017,1.0748571095068875
3.0009634301459296,0.42908262556493004,19.35050340059095,1.1028076103347857
3.1864818258098757,0.4386650693488117,20.052066396546813,1.1130902487834426
3.37529813938302,0.4548913150436515,20.749639447149047,1.1404468508250638
3.5648085465629724,0.4656368977708294,21.416465606623362,1.1537848446964056
3.757883792756988,0.48043211309195794,22.050513619620478,1.1766803897864686
3.951476511592534,0.4952631093036999,22.656789028500157,1.1988808673330942
4.151397420159205,0.506084905231282,23.247670548890518,1.2107629804136713
4.348401528789498,0.5197320960052237,23.83368522376108,1.2293688391418218
4.55285278349491,0.5280787121337981,24.372492887846303,1.2350681394872662
4.761991090641405,0.5416497759589781,24.881864906728374,1.251947350510301
4.9590352039040155,0.5566797643293062,25.370076441767925,1.2719617814404913
5.159727409879412,0.5639975097882814,25.831967129559434,1.2747651696287616
5.367400430254318,0.5773314706457227,26.28860834424364,1.290800802130341
5.574789343642808,0.5892728989253072,26.740453202658383,1.303377798700929
5.792459652426709,0.602448541915329,27.129136641014334,1.3178420927953438
6.000713412840936,0.611033238623755,27.529483549469514,1.3217232881408152
6.203703570664931,0.6219630772562009,27.890972365250065,1.3314781432836504
6.412902014619106,0.6317093389691171,28.20429378732911,1.3381865102790191
6.623648553673883,0.6429542131885275,28.509683191307857,1.3472968005282593
6.839279383219612,0.654766506669066,28.79266528976233,1.3571859875182184
7.0489961109536665,0.6647938223414287,29.087728251216316,1.3633304937320745
7.262062986743644,0.6783523753013763,29.35838776209428,1.377096899201424
7.479218505912709,0.6805066383647062,29.566827821849955,1.3667759602257297
7.693409368652715,0.6941916853144049,29.760807493002687,1.3791424592364014
7.911350083385537,0.7092597549213061,29.954068662493427,1.3938654407802922
8.129481372089732,0.7164520453350571,30.144868094483066,1.3930234073513095
8.340998378742468,0.7230136528509508,30.28661428466538,1.3911497413804428
8.561865779053411,0.7354698831237493,30.41049541195178,1.4001042073698167
8.777266959932325,0.7436998944246805,30.578164782755017,1.4009604703141465
9.00161839534937,0.7525834739482863,30.704926134580685,1.4034033517033486
9.22461755265875,0.7613502429273948,30.7919061501358,1.4047832835070933
9.452670224599242,0.7705528177991864,30.86672947617264,1.406451359651233
9.676227190954682,0.7806140582618987,30.93739152826548,1.409457067772728
9.891251672115352,0.7909189091340534,31.006532762594155,1.4134157337511435
10.112291658160082,0.7998535021875253,31.045814761171616,1.4149688662328412
10.329624705303164,0.8100042067890348,31.088488141840322,1.418345359510604
10.543230535553395,0.8179210068765836,31.10587976412058,1.4179640679705114
10.759874923313971,0.8267330890234564,31.11519343250214,1.4190341463997658
10.978181868487097,0.833792010252325,31.09775869319296,1.416700722543139
11.197293261049625,0.8377286384625048,31.04878940150194,1.4085711523131252
11.423048377255293,0.8472024620056517,30.98343808248583,1.4093188008144164
11.63082463483985,0.8528017571696799,30.86774654932745,1.4031937053104298
11.841283861867467,0.8590726438132263,30.787775364690482,1.3984867458499604
12.061675438745224,0.8707947517851189,30.696479121193857,1.4028375502509502
12.295628669853619,0.8840300661579226,30.544201539660804,1.4083170646668164
12.514597019349834,0.8898075733699852,30.409385560890986,1.4011464514846756
12.741259595728822,0.9016553151086941,30.25207083364761,1.4038491860574582
12.956872917373378,0.908002601434337,30.088272873583335,1.3977343267715514
13.17487824034028,0.9138724457343768,29.909380829880604,1.3910930549236329
13.397819344794579,0.9244702739344004,29.72320184038242,1.3913164950415167
13.606155301764629,0.9249183045307613,29.556476381994386,1.3765448252786825
13.834763155060012,0.9363647597853896,29.343289287969153,1.3781989262878571
14.064791865115424,0.9474057365572208,29.148871517214875,1.3782379900542796
14.275654062092556,0.9506081822613835,28.954351398721933,1.3673280233551213
14.485671296953294,0.9634798355583669,28.737159112234128,1.3707472879777245
14.69255968122231,0.9686917554972384,28.508937655276814,1.3630241482556227
14.914546428686222,0.9721890233646411,28.28243830675119,1.3526383330288991
15.130769502285252,0.9790105424850482,28.018409232455216,1.3464480607472
15.33230052931187,0.9867987062955481,27.755311799176535,1.3414698375666227
15.526358741948567,0.9950704546602319,27.49825719340164,1.337593096623524
15.739960761132007,0.9979850682909989,27.233344638259663,1.3264696167444228
15.946999845509962,1.0048619037356168,26.94620092605011,1.320183708626651
16.150556232993655,1.0179533336626354,26.681813997399946,1.3219698883143258
16.361370066507565,1.0255616923739108,26.387217674225514,1.3164716966514776
16.575322563018915,1.025934335816117,26.0935836009262,1.301205099003414
16.779622111332156,1.034761007463798,25.778465117351665,1.2966359242204342
16.997594063407185,1.0402684214566094,25.47812686425011,1.2876753694618952
17.18059712058149,1.0492434437616007,25.1501588544675,1.2831679765232538
17.396593787260016,1.050908727381733,24.820479457456248,1.2695049057502141
17.605782194036223,1.054360974486299,24.49687430151419,1.2577005498175138
17.80278871799601,1.0677076958433502,24.185225472235093,1.2581011415552266
18.0118224634608,1.0661067938369984,23.861991126359836,1.2408207103541753
18.19381137727271,1.078642839067579,23.52476856653563,1.2400770633655935
18.397554448367288,1.0872968257009716,23.182331293003216,1.2345347234039803
18.596976483991742,1.093033565151527,22.855892838277466,1.225403698693536
18.810555709211116,1.0992764894080174,22.494180774684704,1.2165239513383195
18.999558138685444,1.106152451145354,22.153524429574556,1.2081071150395075
19.198884709027087,1.1081546103032913,21.829997676133058,1.195016731577487
19.39259124991756,1.1092710267198265,21.500444321980055,1.1812588774229977
19.598111279431244,1.1173281176240266,21.17451759144822,1.1748282195081767
19.789367868153057,1.1274710769667655,20.830035712519535,1.170254388563247
19.997251546628355,1.1239863211800245,20.48820317039544,1.1512806931308817
20.191841291131176,1.1361141999447706,20.15049967892418,1.1483959936037738
20.378215791398024,1.1402351101141146,19.81323582003241,1.1375095706187734
20.560137130623037,1.1481168815793774,19.48417102803203,1.1306260385705185
20.753384515094684,1.1525194540072805,19.15556673215914,1.12030166165638
20.936821256363377,1.1585238247142344,18.796816936676258,1.111167821829039
21.12439609389443,1.1586066301296405,18.46132249797357,1.096177479167377
21.311182178033224,1.1673496314811789,18.13674852059887,1.0897998900575046
21.509860861899423,1.173067948152789,17.79668994855199,1.0803213966242209
21.69495992685636,1.1802541432990727,17.472329456796516,1.0720413947881158
21.89056681420734,1.1897046095113284,17.17333698658554,1.066296173135488
22.07109333998692,1.1853682006853237,16.843580974447814,1.048195051180568
22.227671370330853,1.194415174312511,16.523703460735486,1.0421244121269329
22.4062182870553,1.1972051310893768,16.21158666222987,1.0307105472249807
22.57009710578133,1.2011510883547747,15.870376855857844,1.0199474379753817
22.755666645236815,1.2012435414285734,15.55165698931333,1.0056761705411998
22.942809805962384,1.211487791243399,15.244110422340814,1.0000283877469474
23.10874325430986,1.2132703097275357,14.947541076468193,0.9877196937687511
23.274855875679922,1.2132733285370905,14.650458154900997,0.9744235096906154
23.432561109487754,1.229071114617796,14.349576299417533,0.9737749055572913
23.61018328284509,1.232922428928688,14.05048734700878,0.963273252528524
23.769252504642363,1.2375480598573574,13.768761979871435,0.953478272811335
23.922333837046786,1.2342125725182729,13.476127233868137,0.9379692558144312
24.083527877218955,1.2413180172799272,13.197492437852613,0.930434267279776
24.242747196239577,1.2400554120342238,12.922560007255697,0.9167098318671864
24.38497651408234,1.2447234783691843,12.653929547375244,0.9077406000910703
24.524312181087343,1.2485954658078813,12.40106440412495,0.8985721219235557
24.681478382228313,1.2516927672623712,12.151026788031233,0.8889734821049095
24.810560712699925,1.2607617425821043,11.906308692944767,0.8838010928795332
24.940110286388713,1.262036614981482,11.66947612193958,0.8734295950234086
25.06576087355684,1.2652541628984215,11.437771515964904,0.8647271526606304
25.24241782712521,1.2765719140373257,11.202489759849495,0.861140122871337
25.40790280978033,1.2652071857579652,10.96554728249539,0.8417143148263885
25.560892282379324,1.27926359413379,10.758401807382855,0.8398207788179167
25.70956221465985,1.2858616529405966,10.547962920158502,0.833452192320593
25.84077258948073,1.2836548942061412,10.341606183096806,0.8215594119840933
25.96961504477461,1.288782319920991,10.14490329976424,0.8147761808431226
26.100712788700644,1.2958697777776653,9.944755750115837,0.809300818919866
26.23933031911153,1.3011162951891158,9.758509753450216,0.80263625837596
26.383312526927657,1.2956898242514272,9.580247907993462,0.7896721839253333
26.517250573703066,1.300156377304236,9.413881479712833,0.783176615718369
26.65831903623721,1.3057426983611298,9.251875725687785,0.7776482420960639
26.752868660961067,1.314419429922834,9.092589619772653,0.7743103105206864
26.886748106005527,1.307779631189225,8.931515918060711,0.7619755629737824
27.008497524925357,1.319137529442131,8.78834953937679,0.7603002007102709
27.118365570367686,1.3207543786993483,8.640229720549018,0.7532477209749119
27.26019469625406,1.3307816903610241,8.504265400022998,0.751023632724269
27.387833626149593,1.3359501881650442,8.379862353130884,0.7462635591631249
27.50860779341707,1.3263121355666203,8.252583243443746,0.7336380355211909
27.621132555765932,1.3248264991607976,8.135171335020804,0.7258269839296532
27.715133801670035,1.3272030143184257,8.02470597294327,0.7206364427732836
27.826763293146932,1.334604868514377,7.926117893001642,0.7185209379825022
27.950958604235147,1.3394458569849432,7.834135493530455,0.7152367014444486
28.03587618614893,1.339033867915635,7.74753474394689,0.7095779497451767
28.159825164473315,1.345026549504053,7.661623362442701,0.7074863706159236
28.280907872932953,1.3451291947188784,7.591869043373002,0.702347507496422
28.4328823676188,1.3499038972068005,7.523513774805061,0.6998950058135147
28.534550967501026,1.362621336233702,7.461248521498413,0.7017982806520636
28.672186944511065,1.3574561122591948,7.407035878107617,0.6948216576209789
28.797981040165215,1.3626234166555853,7.358220470055377,0.6933846870158819
28.946991486548168,1.3599203555541506,7.3279845447506,0.6883998683501258
