$D^a [mM]$,$D^a [mM]$,$I_{islet}^a\ [pg/islet]$,$I_{islet}^a\ [pg/islet]$
0.5187539830680411,0.2097406622294312,3.038446441668789,0.42024630324781703
0.5688444582678818,0.25096040760517946,4.072660835423035,0.593891138164707
0.6400023257369138,0.26915933368871475,5.104558817480141,0.7115405854195949
0.7278733388693399,0.28722823219108773,6.123683306424847,0.8060359218041165
0.8296194862709987,0.3074491909998184,7.129556244138736,0.8886775853079653
0.9416714962240975,0.3262322780523503,8.123639889334925,0.9546359863888311
1.064114339664625,0.34856496878957155,9.094387616083981,1.0221968425999435
1.1949467351580647,0.36920294891014915,10.061872335921123,1.0783820716673247
1.3334138062685337,0.39274102492964125,11.005848740222762,1.1386241343673984
1.4775853779848922,0.4162949129650687,11.927402287278616,1.195141766537884
1.628621076934705,0.438200027997343,12.834486592483627,1.2440450762937918
1.7843592338763685,0.45654907977775183,13.722146941634318,1.2807249275014696
1.9452628298345376,0.47649290618108603,14.58175879732874,1.3202950967835443
2.1101524139629135,0.5030081002382796,15.423018463915012,1.3763422660202647
2.279891157617236,0.5225462373323531,16.230126630321486,1.4114272878241374
2.452817198637618,0.5436433924258708,17.01708953019094,1.4493582224889014
2.6294410342539294,0.5626875311857233,17.79171893765289,1.481062330206259
2.8116016287115486,0.5815627226034012,18.54389803818612,1.5114112519456016
2.995297508978363,0.6048649569940889,19.263395649393132,1.5521072518609638
3.1803200836774077,0.6214400564575157,19.970471051032323,1.5748855694144261
3.3663889782727754,0.6404965789819379,20.63883438902525,1.6037971281570191
3.5588622632654037,0.656320263012488,21.29304102668895,1.6236319047479217
3.7493145603002436,0.6783440357946724,21.92993752778557,1.6584196249190808
3.94341790686608,0.6939589303031435,22.54333221206558,1.6771303888706592
4.138378727420151,0.7103135684083381,23.1415447097006,1.6973653783699505
4.336870123294226,0.7319692491754693,23.708452202973312,1.7296656834143669
4.5385561809466335,0.7485520054696413,24.262586473788833,1.7489240960126111
4.748383742106091,0.7634844436454509,24.77948502537865,1.7633689602397735
4.9486768358917645,0.7852741468827016,25.27901321174662,1.7930482107253318
5.161035762196994,0.7996386370654069,25.76516901111619,1.8055667635130488
5.36399778751578,0.812904123501626,26.22562784428044,1.8153691393720763
5.572625577207379,0.8344151286859416,26.65870013365902,1.8436135693697517
5.788503717611296,0.8483749670850155,27.06743021764932,1.8537456585068923
5.99841989895122,0.866379424396072,27.43757598190071,1.872035091230166
6.2058579721691425,0.874256774853104,27.80105583947925,1.8685835385088283
6.412295049452532,0.8937167816553492,28.13878135613219,1.8904721067655408
6.629011250423643,0.9110433719076282,28.46110027255905,1.9067654861235819
6.84344334584404,0.927695405098328,28.75621825524536,1.9206819933168662
7.052160222458448,0.9401598327631008,29.041181021233736,1.9260711422037577
7.26990619122566,0.9559479956321687,29.269890413056515,1.9377793397749856
7.487059865962992,0.9636206412415401,29.524119612553026,1.9322451858342233
7.71108620168212,0.9832447929046569,29.713075795297254,1.9502824432575387
7.923636226989504,0.996687452894814,29.936631884499246,1.9555590660472717
8.143553709482182,1.0049976439301598,30.101845942031243,1.9514469751903594
8.356779031648083,1.0229874351028112,30.29620425700736,1.9659639413405754
8.579584473049676,1.0341149579559648,30.44751998093245,1.9671285135699927
8.792621040973753,1.0417113983803188,30.588585856860586,1.9612042452008787
9.022156183958025,1.0643754791303535,30.713873024059648,1.9833630160957902
9.242534425273464,1.077750436414996,30.80338614432491,1.9868187169978477
9.463933604851544,1.087350420492082,30.87169290017614,1.9831963757209907
9.679729023833454,1.107239116426464,30.88591047810803,1.997766239314627
9.894120168099226,1.115579199715457,30.93352164655907,1.9913728779250814
10.11972342553238,1.1326170393102488,30.964676549289802,2.000749519049031
10.340136316781539,1.143673165932096,30.954174131513735,1.9985266506764787
10.570664614533198,1.1535615096154037,30.955201053636223,1.9939437756168705
10.794409504116203,1.1704685175486529,30.897969611965337,2.000735246210044
11.01310066595305,1.1830164668580616,30.867289877781822,1.9999507414499964
11.236335221890073,1.1842327698964272,30.80497631637816,1.980421007111109
11.468025497433771,1.2088913152548542,30.756393186553424,1.9997468981465278
11.683243978918638,1.2096204509882396,30.671829032878147,1.9791897289772429
11.908922534597295,1.2284583582910285,30.585655362495963,1.9884370837000438
12.117923016630206,1.2364975958878357,30.470255688692358,1.9799303300214277
12.337474543659702,1.2458880454622914,30.35571014277353,1.9736524217589853
12.55967417354585,1.2562866098508174,30.215329043700322,1.9684081510694946
12.78864167254924,1.2695832298654743,30.057682469210018,1.9668096174721497
13.00034665621049,1.2818130232110032,29.900599294949718,1.9634289441163106
13.223852887455319,1.29751246262434,29.721847175229573,1.9654473604648481
13.43419146625501,1.305900483151639,29.57091925211056,1.9563274915182507
13.652022749570936,1.3142100714651945,29.38512461757442,1.9475835768342946
13.87155727657586,1.3257560723701922,29.18555909495418,1.9428338747385263
14.088276768240819,1.338715149562076,28.973612667081586,1.9397018886132682
14.30409153954276,1.3487647704730514,28.750618905900154,1.932021223396926
14.508873790259026,1.3570294864562962,28.547447637303062,1.922293119987917
14.730659375817632,1.3674986894522203,28.30167934645169,1.9155739024591385
14.9279702647229,1.3731597267989109,28.023290365361238,1.9011426449694269
15.130919191312215,1.389708138876115,27.800777814716866,1.9025197885456555
15.344603598075176,1.3926489709340122,27.555861940581142,1.8854495024132272
15.53778823730996,1.4059336841386085,27.267025445478936,1.881858930665052
15.729295251809422,1.4074889109619877,27.00569428957156,1.8628291981196983
15.95331030959221,1.4268021535133273,26.71041651599882,1.866708267577287
16.162278627146524,1.4376749349945712,26.439706407598113,1.8582935416045823
16.371344303827986,1.4482713801148703,26.16768394725428,1.8502895363625333
16.589096188135525,1.4551316819817925,25.871565182210478,1.8371160306825134
16.80825209900124,1.462387038913969,25.567436861484577,1.8236764905390304
17.02349554017914,1.4753150582752645,25.252782078565673,1.8170411136197828
17.21704673123664,1.4890065861370099,24.928168248663738,1.8113676218961858
17.41353953049022,1.4853485084268117,24.61772195870311,1.7851259407414344
17.614642869782568,1.4884800746347582,24.31668886723591,1.7677180829174446
17.800468034261808,1.4985054301613987,23.981068171146347,1.7584321398730764
17.984236190439155,1.5121343878426885,23.682253277359756,1.753478438224628
18.19009336674371,1.510607623531967,23.347389674318354,1.7307418649038377
18.37854411046277,1.526326125843807,23.02846165619229,1.7273379117351058
18.57876720225935,1.5286814017698618,22.696212693347054,1.7087086441421393
18.772382928844813,1.5435086570896717,22.375745015303156,1.703932285714271
18.96802931098912,1.553875116061721,22.030257276062493,1.6939174121762501
19.166706839743355,1.5686606724794783,21.69538740037332,1.6882486742562743
19.334592387443987,1.5715257690429827,21.366006897691893,1.6701792949513787
19.5127301021257,1.5709726811945366,21.03765758934917,1.6493445309094041
19.707780736125684,1.5802341913163245,20.690835427783558,1.6382037267322815
19.897955513131503,1.5930880503652742,20.37458760794215,1.6303984185052995
20.0875800207628,1.5984146961252894,20.03860386789244,1.615078079750583
20.265653268930812,1.6046188282708878,19.706093629097275,1.600580363301501
20.429548893251958,1.611964908810751,19.358947288547057,1.5873662309405634
20.632347610805066,1.6213204297785666,19.035765400511043,1.575864148157589
20.826948763189428,1.6247109950661782,18.716504030972672,1.558383529972821
21.002045032652816,1.640555735506641,18.38745270639865,1.5531974726666395
21.190583031801356,1.639503449491796,18.046141368800377,1.5314812645898934
21.37218510370207,1.639995107579165,17.70440792232029,1.5110500649376257
21.54350995923405,1.6580073505991821,17.368378800484333,1.5069220109653707
21.7007285376659,1.6582583944537488,17.0578706809246,1.4872561245777212
21.88528846680826,1.6655702988722054,16.745900676627524,1.4745327345098826
22.068122343665706,1.6822769835577993,16.417222202775974,1.4691589580779243
22.252058112143985,1.6767020563238373,16.107414375153834,1.4440458386852801
22.411803908514642,1.6894007049058193,15.796771416697753,1.4354934561049455
22.583863714065064,1.6918636324668523,15.485676209793997,1.4182409293768345
22.729129635180136,1.7009832485852712,15.193639692273567,1.4070566334303323
22.894433854953824,1.7028371335150212,14.897160502343949,1.3902625575226857
23.078743590586427,1.7098156970205427,14.616563066605117,1.3773876533198728
23.254777665463827,1.7186417494008681,14.32236347764994,1.365679419574218
23.436842036836456,1.7268857551222339,14.020107633830124,1.3529339863562042
23.61452572293224,1.7488619753147838,13.741191416793487,1.3508748563115627
23.77185907179932,1.748727746009837,13.46317581899633,1.3322502635495281
23.90809952044033,1.7522127069587532,13.184051883398885,1.3170050260972754
24.070677616031126,1.765116400666341,12.911379339190328,1.308892719050302
24.214789427428215,1.7711502563598716,12.643705805948954,1.2955664607198663
24.376090486494263,1.7639179560285436,12.362414056185969,1.2724390944980437
24.531506010633233,1.780867877886052,12.110569637327044,1.2668353427936192
24.68057919060547,1.7751404835037303,11.851410845730362,1.245552104996275
24.80739886755385,1.7895762826130197,11.625389600917176,1.239307010177107
24.94061153308013,1.7902426264733275,11.3847623114437,1.2240960250795236
25.072014856768295,1.802313730871263,11.153140105662358,1.216522305682274
25.20312661869419,1.793311494600385,10.912040768353135,1.194550611180927
25.334375292752657,1.8037008613916659,10.676901435342206,1.1855015873516652
25.475314058179062,1.7993442266276622,10.46446722835975,1.1670671393015728
25.616912733107252,1.8057445894246156,10.257182609058107,1.156309493382385
25.76699288066116,1.8128085851338522,10.049159247434915,1.145927548303702
25.903641750200233,1.8200073204727447,9.844632256391863,1.13556650878782
26.034701637676708,1.8316244973737221,9.65724887228411,1.1284909179914557
26.180898332012198,1.8300834805138204,9.466554733438356,1.1135920470786214
26.341153528241783,1.8371705722229588,9.286512709823423,1.1038349690221982
26.456710365919065,1.8501296442191835,9.115082136527326,1.0981458336802592
26.606235045537563,1.8430986799746192,8.951673720622804,1.0811699714512417
26.728076543395947,1.846301907384423,8.790581795808476,1.0705298052649084
26.880984662704435,1.8455820022497489,8.639163177263773,1.0579194264884126
27.01619863674413,1.8652425244386752,8.499092336199796,1.0572706460607535
27.127100047725037,1.8711406309748566,8.362473767189499,1.0495167028929646
27.214519169853407,1.865954425998223,8.226672177636127,1.0361146512593662
27.3635814964835,1.866320736285655,8.103420249237557,1.025965556972353
27.49385211973304,1.867532554686619,7.9841293562387365,1.0164006083057615
27.641958348144342,1.8818351526601051,7.869829165015851,1.0141056138555857
27.758469328772318,1.8639164289142134,7.767634591629456,0.9950399024506722
27.904298860437844,1.8841822221603504,7.677284235410109,0.9971995113530463
28.038712517308472,1.8882107240915893,7.592110467395038,0.9910213382552034
28.14986145933032,1.8972636531775238,7.507091190669454,0.9879387032925196
28.241440722128747,1.9045787356606592,7.4294311164361355,0.9844520026643914
28.35106876761406,1.9132738150333546,7.358208044570404,0.9821606624136011
28.460048339704453,1.91279964343862,7.295992337179609,0.9754546303432148
28.54849436016235,1.9082858868375467,7.242409904135274,0.9675379245198035
28.66913870917607,1.9150944546194757,7.191745627815619,0.9656572288411032
28.771786186074678,1.9162500280485917,7.151434314984112,0.9612345101987199
