coupler,coupler,$D^a [mM]$,$D^a [mM]$,$I_{islet}^a\ [pg/islet]$,$I_{islet}^a\ [pg/islet]$,$\gamma^b$,$\gamma^b$,$I_{cell}^b [pg/islet]$,$I_{cell}^b [pg/islet]$,$G^b [mM]$,$G^b [mM]$
2.696762793639209,1.0730048205154203,0.5037754067016067,0.07097058486500353,2.403321157908067,0.142095797867868,11.004381649428979,120.98939936922635,2.594660265080165,6.631970652993505,5.436810191196855,35.35627018721271
2.9783703784341924,0.9652048359494774,0.5102391015243484,0.10024834311453021,2.7578942799009383,0.1765821194114678,11.003550823661499,120.99390312654944,2.940814868430607,2.141356602386677,7.6724152835668065,35.55941521403342
3.2582498947158456,0.925651765543086,0.5187309619359439,0.12303498517934804,3.0824812088976614,0.1967860338145198,11.002273092512041,120.99847479862186,3.2112299764412455,1.0565721374325996,9.908316276385449,35.80461481012626
3.536624928470701,0.914542032935534,0.528866450622445,0.14260053134377504,3.3884398938389495,0.21173191713200293,11.000973833957687,121.00300734249828,3.457866730168462,0.9154975711031327,12.144659661804326,36.09077768015571
3.8134227318223566,0.9190632056144185,0.5404009841440711,0.16011400499819473,3.682562663103454,0.22387853723421178,10.999690871918574,121.00752039839695,3.6962601357954554,0.915435083035298,14.381456671864726,36.41695715004313
4.090087610296905,0.9329006689566036,0.5531665259768488,0.17622984808130035,3.9695068675791845,0.23454172527288894,10.99842824274674,121.01195747405222,3.9320815121755004,0.9250322357113788,16.618704548105597,36.78182343212666
4.365623693098314,0.9523242320378469,0.5670418386434903,0.1913548480763171,4.2516715003876016,0.24442302925585685,10.997187272645533,121.01652405296532,4.166335185000207,0.9443867216614171,18.85639579524286,37.18515216345156
4.6396248346427456,0.9749470219837941,0.5819328064244473,0.20575456172596604,4.530335625284351,0.25385200380491413,10.995969355339184,121.02110515729805,4.399038238916546,0.9597329686566443,21.094529716297984,37.62524749560914
4.910768695524894,0.9990674564296593,0.5977626678359229,0.21958020161491587,4.805739401956089,0.2627781938969268,10.994775550672784,121.02570931475593,4.629270173842087,0.9753913921650126,23.33310104580596,38.10091066287114
5.180565510760061,1.0239848039092672,0.6144653028895846,0.23281388616313764,5.078632376738824,0.27033372057857824,10.993606893229298,121.03024474500879,4.857812071568333,0.9865840119574587,25.572104792809114,38.61024997534291
5.450484990957193,1.0494847382358374,0.6319848725397605,0.2456056202405476,5.350053303176537,0.27748180151690877,10.99246434669476,121.03480995946975,5.0859271165682,1.0025778794887743,27.811532137915492,39.15257569622293
5.718994796741754,1.0749883385175463,0.6502745087927906,0.2577686232613261,5.620013504638337,0.2822609512840538,10.991349228075705,121.03941121044744,5.312921744014602,1.0196860487832942,30.051377188879997,39.72662470124305
5.9859256179770455,1.1002263054613335,0.6692924870149,0.270266229671854,5.888452826649882,0.2930079435546944,10.990262668114156,121.04390391387888,5.538469442515634,1.0290178823640932,32.29163412656635,40.329902093641465
6.251774207456037,1.1251552549532644,0.6889999779232312,0.28228678884524555,6.155534838326275,0.2991623113470328,10.989205515943468,121.04836738945401,5.762820057047065,1.0421009572592672,34.532291647512466,40.961674863395515
6.51723722810857,1.1498484244351632,0.7093634966004174,0.2939765532571514,6.421636850805953,0.30425696916590317,10.988178919185884,121.0528435834185,5.986536359472666,1.0581234149428096,36.77334100846201,41.620994367223105
6.781154379015788,1.173973071852034,0.7303529793134658,0.3057212134354356,6.6865217552986,0.31188459732384316,10.987184064462781,121.05741260181098,6.208975076675415,1.0795454273386798,39.01477452600375,42.30735456702237
7.044685694621876,1.1977520637776833,0.7519399994052947,0.31725643181692276,6.9505119479727,0.3178208568837046,10.986222100676969,121.06190171501107,6.430755355511792,1.0910510597517828,41.25658724922687,43.01784156705052
7.305347939953208,1.2205834039951482,0.7740995729400311,0.32909285892881573,7.212808011798188,0.32756220564318045,10.985293860780075,121.06643390561462,6.650324737769552,1.1094987446874915,43.49876747978851,43.7524658736085
7.565966548398137,1.243166220687647,0.796806492639007,0.340797001105452,7.474061071174219,0.33453568329695516,10.984400349669158,121.07093225957178,6.869195441482589,1.1237582174342053,45.74130815220997,44.50925020093144
7.825490231625736,1.2652818537624766,0.8200393771694507,0.3523784150405241,7.734241622267291,0.34035127744912197,10.983542502624914,121.07553319359552,7.087085321662016,1.1467605256434754,47.98419870715588,45.288562764720304
8.08407033723779,1.2870018275935569,0.843778179230867,0.363810785010488,7.993392897536978,0.34523652291402274,10.982721532927826,121.08015221661931,7.30401581840124,1.1652195255721893,50.22743336018175,46.0883988918292
8.341547180898488,1.308319421450111,0.8680043033964466,0.37530235860712713,8.25147731998004,0.3516376765255498,10.981938294600695,121.08479932414414,7.519881654181518,1.1841285942499016,52.471002920530736,46.9078425516967
8.59831246198155,1.329359886602703,0.892700146388961,0.38662767580279456,8.508629433112219,0.356144169543778,10.98119374003727,121.08940747477868,7.734925560536794,1.1986240013041038,54.714898344129324,47.74509727034644
8.85223279776983,1.3496112475087383,0.9178497421962675,0.3979001994145987,8.764076865045354,0.3609205448151544,10.980488713947125,121.09405673949304,7.947727101971395,1.2183807685203631,56.9591077901423,48.60019235460689
9.10254921275191,1.3688979598849857,0.9434366617060732,0.409228057743604,9.017052933806553,0.36677389057564663,10.979824049398303,121.09868142534016,8.157329020439647,1.2340762333787039,59.2036225060001,49.471405314495755
9.352973761968315,1.3881868715582737,0.9694441954779904,0.4206037232687397,9.268582795048133,0.3728181905636806,10.979200090630911,121.10319082416032,8.366042691865005,1.242829966349247,61.44843135308474,50.356694113410754
9.601719303289428,1.4070611596144358,0.9958583727420773,0.4320047725087627,9.518566999351606,0.3785913865462531,10.978617511806078,121.10774635747852,8.573310676263645,1.262655287711493,63.69351917877793,51.25734638266721
9.849473494337872,1.4257068704800762,1.0226659098698292,0.44340950444145305,9.767221190733835,0.3839272637087062,10.978077388950624,121.11232360879967,8.779447297914885,1.2818105736184453,65.93887663725764,52.1722757582546
10.09459899761714,1.4437130116171295,1.0498546106682625,0.45488289018690975,10.014020067406818,0.38972803540044954,10.977580498089083,121.11698006274607,8.983400844503194,1.305301137680621,68.18449311703444,53.10154584028419
10.338946440955624,1.461551450461581,1.0774121155845933,0.4660774708940507,10.259388957405463,0.3916949584960778,10.977127525489777,121.1215922943068,9.186151373083703,1.3200792675356536,70.43036015890539,54.042765289369456
10.580595165723935,1.478743867325364,1.1053275880403817,0.47734024297532457,10.5028148770798,0.396022420850843,10.976718941703439,121.1262390342332,9.386648553539999,1.3400586304323816,72.67646435461938,54.996386080883674
10.823199713602662,1.4961987016118303,1.133589689299697,0.48891497522725474,10.745452212868258,0.4039434500971872,10.976355393766426,121.13085106188572,9.587135640671477,1.3552963792175932,74.92279532551765,55.96080583955661
11.061665181070566,1.5126087507838248,1.1621891972026788,0.5004805668413582,10.985955951502547,0.40946977394056744,10.976037688669749,121.1354801151945,9.784719314426184,1.3741625124614296,77.16933934669942,56.936188972208434
11.299038182245567,1.5286726979982375,1.191115823603468,0.5120900653690313,11.224737775279209,0.4146723189899818,10.975766235613264,121.14012687457505,9.980664386530407,1.3934288692773447,79.41608512587845,57.92199866381567
11.5374642603565,1.5448742504948336,1.2203602260851767,0.5234856769066739,11.462903134059161,0.41665467180471755,10.975541595253162,121.14481001169015,10.17685233487282,1.4142550366349433,81.66302098333836,58.91799626302156
11.77317876345478,1.5602368837247287,1.2499150665535126,0.5349786088031719,11.69960949756205,0.42103106278193975,10.975364807527512,121.14946833867813,10.371212486526929,1.4305702314759834,83.91013519279659,59.922774945905196
12.008710175286978,1.5753550104380987,1.2797719963418785,0.5465818399746598,11.935363021912053,0.4263886968267547,10.975236193276942,121.15416239229597,10.564893745700829,1.451273836644004,86.15741411596537,60.936791621907496
12.246804834110662,1.5909750887268364,1.3099237352435011,0.5580296927648702,12.171566122910008,0.4288638427522847,10.975156637723558,121.15879466849967,10.760163388447836,1.46472658200845,88.40484587382525,61.95811568475909
12.48005118733272,1.6054012895356322,1.3403651826665737,0.5696470143815725,12.406095630023628,0.43416423012254585,10.975127200596035,121.1634294772957,10.952513668569736,1.4827535390887796,90.65241417009383,62.9873293366653
12.710622461512685,1.619259742604637,1.371088650164893,0.5813023234498297,12.638547201640904,0.43885959102730615,10.975148193538189,121.16824198479351,11.142113740788773,1.51522180275379,92.90010601002723,64.02678304408812
12.944774307310581,1.6341596644269374,1.402086445974419,0.5930382787741578,12.871180589310825,0.44381229203120526,10.975220296531916,121.17298304137582,11.333393464563414,1.5290724524233787,95.14791461173445,65.07218605553818
13.172971321735531,1.6478878218726432,1.4333537657221314,0.604714191934351,13.101537642534822,0.447103200270542,10.975344163365662,121.17773564779434,11.521007112460211,1.5480504626898177,97.39582275412977,66.12451035000792
13.397836786229163,1.660998394629116,1.4648832729144488,0.616468045963762,13.329192815814167,0.45143378123949607,10.975519851781428,121.18244725337613,11.705187484039925,1.5631839018710287,99.64381749834865,67.18258860993144
13.621111724991351,1.6738095242791684,1.4966673567541875,0.6281950473505443,13.554587414022535,0.4547808410875799,10.975747106713243,121.18719531912251,11.887223304132931,1.5842365057853176,101.89188394416124,68.24736236560636
13.849976819008589,1.6879210419218391,1.5286992733599618,0.6399626080652703,13.780858576763421,0.4585573299748964,10.976026359363459,121.19199767589743,12.072527877171524,1.607302115865449,104.14000966772437,69.31882863627499
14.078546037431806,1.7018490925060212,1.5609758562641218,0.6518008932798364,14.007534339558333,0.46286054471828786,10.976359427557327,121.19678039778587,12.25860511441715,1.6246905314291293,106.38818128034472,70.39550090755088
14.303984489757568,1.7148647064564704,1.5934935261611827,0.6635652756671424,14.233197677880526,0.46550120157901564,10.976747147622518,121.20153325302081,12.442721955361776,1.640805857743897,108.63638294115663,71.47695060569548
14.520847270265222,1.7257810358967813,1.6262474159593694,0.6755539459315096,14.45482038659975,0.47130602648343944,10.97718972119037,121.20635702180006,12.620247247396037,1.6651240458825391,110.88459891825914,72.56459877620101
14.742340911179781,1.7377825557943318,1.659229566634167,0.6873915787385015,14.675868451129645,0.47340801420637674,10.977686306112446,121.21115640761674,12.79903642483987,1.6821922674849448,113.1328184325248,73.65662532229706
14.962425416335464,1.7495980456417293,1.6924360468401574,0.6992092522563829,14.89600537577644,0.47579429557561714,10.978237759904005,121.21595209490106,12.977218262618408,1.7004207338967998,115.3810251839459,74.75315578937018
15.18084729788825,1.7612851069925843,1.725862585240975,0.7112740373817105,15.1149280378595,0.4817204744392253,10.978844711906277,121.22074108199116,13.154054171172902,1.7185418665878756,117.62920399196446,75.85393043244336
15.394530809018761,1.7722223157923407,1.7595046519418247,0.7232629885725448,15.331224522087723,0.48473043215075434,10.97950749786105,121.22556051682182,13.32716974359937,1.7397735758480002,119.87733961641788,76.95937826170288
15.610176770016551,1.7838798802906168,1.7933567036525346,0.7349833372773813,15.546727896202356,0.4840752106014437,10.980225820560008,121.2304014996538,13.500543430680409,1.76050674389475,122.1254186630249,78.06915859613551
15.82409245800227,1.7953327009372104,1.8274151516961865,0.747183621043683,15.761060891207308,0.49189437674967584,10.981000468018465,121.23519962453011,13.672784039983526,1.775871194639535,124.37342643924057,79.18199383102778
16.030927933752537,1.8052854444887938,1.8616758037242107,0.7591455057759187,15.971857739146799,0.4933273511697465,10.981831568176858,121.24006683109131,13.83972944598645,1.8001658318948992,126.62134608253837,80.29963282407915
16.243225620593876,1.816472863208547,1.8961328390869312,0.7713563117654677,16.18271556077525,0.4988284949992984,10.982718467246741,121.24484303332503,14.008910930948332,1.81172857637452,128.8691659066826,81.41916110129522
16.453896017745137,1.827243101949101,1.9307836227235384,0.7833358266576401,16.392957265954465,0.49943151912138073,10.983662044163793,121.24964392539063,14.177625382551923,1.831988779127811,131.11686649918556,82.54242782573466
16.661852287128568,1.837378137969312,1.9656252239947207,0.7957469497719337,16.601741606835276,0.5070619776289955,10.98466319986619,121.25447263472745,14.344301335979253,1.8533291121521673,133.3644332047552,83.66933879968643
16.866627167910337,1.8468187461215875,2.000653720460832,0.8079799012745233,16.808377446141094,0.5091165603200131,10.985721980105154,121.2594350254933,14.508140458958223,1.8836918850834905,135.61185161024332,84.80159107301552
17.06934374338016,1.8558613937536863,2.035865036479663,0.8203659643962966,17.012898994144052,0.5135390687593508,10.98683847580105,121.26429691911423,14.669689598726109,1.8951250033827485,137.8591113910079,85.93496015378724
17.27451974945143,1.865552005789346,2.0712550367461517,0.8328011884035285,17.21713419491425,0.5174124213540877,10.988011690089479,121.26921126129471,14.832275364547968,1.9177589422553005,140.1061935685575,87.07200626157099
17.474977941717952,1.8743470656195906,2.1068213538383134,0.8450004332357893,17.419308918062598,0.517225113696918,10.98924312600866,121.27414380045671,14.991871909005567,1.9385733508387826,142.3530840575695,88.21200298517553
17.680251692887396,1.8843204751603264,2.1425602607778274,0.8573038563728351,17.622171874623746,0.5200994393864743,10.990532270283438,121.2791522603118,15.153945026453584,1.964075302780286,144.59976825863123,89.35585082262119
17.8803479061462,1.8932707557909718,2.1784702647128142,0.8695996706095359,17.823375390376896,0.5225651064907355,10.991880857036449,121.28416423047915,15.313139481004328,1.984002944943932,146.84623225219548,90.50215442029393
18.0786959878169,1.9019201916712876,2.214548040414229,0.8821065718209125,18.022882579360157,0.5278487734249786,10.993288212339394,121.28921553809168,15.47024947265163,2.0064354323244618,149.0924605857581,91.65144516421593
18.27570774545893,1.9103372118248896,2.2507902422221377,0.8945950063693764,18.220836261752993,0.5310132255486733,10.994754302082583,121.29416249402536,15.625801715999842,2.016966250966288,151.3384390156716,92.80107390412049
18.468707563355565,1.9179424486843324,2.28719385137083,0.9068840841240141,18.416251781396568,0.5308906586809609,10.99627857003361,121.29921219952946,15.778081488097087,2.043919378419847,153.584147952497,93.95464124491335
18.667224335018545,1.9268525732576032,2.323755161196459,0.9194129798537766,18.612349826376885,0.5355759878349164,10.997861164272763,121.30417584191405,15.933244860498235,2.056359069055623,155.82957599125803,95.10868239558911
18.85840617166832,1.934403559197711,2.360472936707083,0.9319225428921127,18.80592247331515,0.5384430957390909,10.999503035913222,121.30917847998543,16.08414248516783,2.0781687593389155,158.07470314018428,96.26535429892338
19.05664525507018,1.9437497899281175,2.39734359504655,0.9444569115917928,19.000801662914455,0.5412324785348951,11.001203586696647,121.31415395679821,16.238704334013164,2.09516341834064,160.31951563246548,97.42338805147772
19.252171551343054,1.9528984730365524,2.4343665864435025,0.9568704304463398,19.195378667209297,0.5419656592376851,11.002964550280012,121.31927286455115,16.392470569349825,2.126250986371769,162.563995372504,98.58576594502814
19.43473202176392,1.9597239573101366,2.4715401676949114,0.969282798333777,19.384586923290044,0.5435894524765345,11.004786905017681,121.3242429731758,16.536926330067217,2.1339502975764413,164.80813114531338,99.74714243664565
19.62341604521498,1.9681911584708023,2.5088587065110914,0.9818545688208108,19.57302238745615,0.5477346422862792,11.006666369736195,121.32928500334968,16.682879879837856,2.1580478986161773,167.0519032459706,100.91144564004519
19.809314584359527,1.9763258073490788,2.5463201562524773,0.9944270418490694,19.759879265446216,0.5505653824897716,11.00860487902537,121.33445540891205,16.827337642665952,2.1884067073801208,169.29529819637537,102.07961433735562
19.990520518738776,1.983628239832383,2.5839219937333837,1.0071593000429702,19.94391113612801,0.555145642266897,11.010602678288706,121.33956406300186,16.968066720757633,2.203339152698239,171.53830489702523,103.24812981346827
20.171231427695602,1.990875068200672,2.621660767355934,1.0199289422477662,20.126049377489835,0.5586244162887284,11.012657967279665,121.34467723593062,17.10733571369201,2.2224342084277366,173.780905848369,104.41813999949585
20.35395648283884,1.9985204098483385,2.6595338523038663,1.032510572173182,20.307856447529048,0.5585021119119623,11.014770850189961,121.34985589689663,17.247581832110882,2.2470260143218,176.02308590896428,105.59069057348904
20.538693563081324,2.0066022025423536,2.697539868124295,1.045343907978973,20.490268823690712,0.5632729762654776,11.016942491289228,121.35495983269193,17.389534978894517,2.2603927487327917,178.26483142003417,106.76316702798432
20.7270130882971,2.0155068180147717,2.7356779680703767,1.0584354538411869,20.674476985819638,0.5699250063057834,11.019173474283889,121.36008155347227,17.534513564081863,2.2805859245217004,180.5061231534928,107.93720626750883
20.904867727309465,2.0223898074062725,2.7739482290344313,1.0711198827378114,20.855576348956674,0.5678805092069916,11.021465922472998,121.3652919012005,17.67308026063256,2.3074063632964195,182.74694473668933,109.11404091481516
21.07844523852691,2.0285882672802056,2.812347444181796,1.0839412633203973,21.033098643179983,0.5703274251675847,11.023818007204682,121.37049988617353,17.806735497899354,2.327108831606337,184.98728440888226,110.29195101844402
21.255291774403304,2.035697441049996,2.850871896778699,1.0968881763010052,21.209781931247562,0.5742178244273345,11.026227723807096,121.37574222650676,17.941211868543178,2.3491908175165124,187.22712716646492,111.47156208862144
21.429349928162992,2.042416565038942,2.8895199224352837,1.1097670479222883,21.384846156463027,0.5758647072801489,11.028695991029963,121.38096765271574,18.073989174794406,2.3672552274138554,189.4664583709091,112.65188356886704
21.6063551469706,2.0498302351419473,2.9282894182833843,1.1224944792526355,21.56011732434854,0.5754640785558942,11.031222291756421,121.38621801664664,18.208326358813792,2.3884505596378722,191.70526191033423,113.83364046172453
21.777007270604372,2.055957515088928,2.967179572326131,1.1354549107202285,21.732970919460058,0.5798400659981722,11.033807910280302,121.39144238140679,18.338691195938736,2.405740040308971,193.9435226302594,115.01585019797402
21.946047828998417,2.0616760269545034,3.0061876755207777,1.1483103981294895,21.90372926229611,0.5810634901541623,11.036451325169764,121.39674662814946,18.466743287164718,2.431441470398644,196.18122458830476,116.20042163659112
22.112408697605133,2.0667261687471994,3.045311438094359,1.161629538023329,22.07215820485726,0.5893242603802402,11.039152418496087,121.40209800038592,18.592233039904386,2.455149303661647,198.41835561580956,117.38670242673027
22.279600703623146,2.071922389064715,3.0845482745789923,1.174854344928308,22.239522227551788,0.5921104999811452,11.041910340427421,121.40736129867359,18.71754331723787,2.4674831913699036,200.6549025811255,118.57216092558828
