coupler,coupler,$D^a [mM]$,$D^a [mM]$,$I_{islet}^a\ [pg/islet]$,$I_{islet}^a\ [pg/islet]$,$\gamma^b$,$\gamma^b$,$I_{cell}^b [pg/islet]$,$I_{cell}^b [pg/islet]$,$G^b [mM]$,$G^b [mM]$
2.696762793639209,1.0730048205154203,0.5037754067016067,0.07103416848880899,2.4522280980017968,0.14206804786832755,11.004381649428979,120.9893964385127,2.594660265080165,6.631960931886252,5.436810191196855,35.35626726970798
2.9783703784341924,0.9652048359494774,0.510537684414885,0.1003344982214544,2.8190937697072513,0.17171113111772163,11.00355082238093,120.99392116689629,2.9408148691873066,2.1416332541985192,7.672415178269148,35.559447553063265
3.2582498947158456,0.925651765543086,0.519356599994353,0.12283029833350464,3.142371469468344,0.18732469849620717,11.002273107063957,120.99842964886292,3.2112299781874754,1.0546870859602266,9.908316824934445,35.804498114827716
3.536624928470701,0.914542032935534,0.5297801660635741,0.1426599925722904,3.4430735650239512,0.20156789369441586,11.000973801827058,121.00294342110254,3.457866724289488,0.914576600632733,12.144658573670313,36.090605023676815
3.8134227318223566,0.9190632056144185,0.5415544741990743,0.16027670473540387,3.7316764581482857,0.21178388282239782,10.99969081801828,121.007511570955,3.696260148193687,0.9176369670174956,14.381453281152062,36.416987812843566
4.090087610296905,0.9329006689566036,0.5545192113349913,0.1763238379936582,4.01414409908466,0.22012076574339584,10.998428237624466,121.01202806043158,3.932081560837105,0.9287116303587888,16.618700851453468,36.78219527898783
4.365623693098314,0.9523242320378469,0.5685632646636805,0.1913468474448294,4.292962852632627,0.22831546655262774,10.997187350410968,121.01656053356012,4.166335247806273,0.9431509522942968,18.85639465530403,37.185352530723584
4.6396248346427456,0.9749470219837941,0.583600504862261,0.20578828770774832,4.569174466072582,0.23743662487592251,10.995969403185882,121.02115527101718,4.399038272793405,0.9602776044277717,21.094529871828854,37.625520857731416
4.910768695524894,0.9990674564296593,0.5995596985885641,0.21944635882357055,4.8426399424206465,0.24416391069280638,10.994775610044599,121.02570165989707,4.629270182806067,0.9725711265720018,23.333102997858077,38.100828828720545
5.180565510760061,1.0239848039092672,0.6163786199613241,0.23262911914487083,5.11404588946607,0.2511975703308692,10.993606884847395,121.03024052547215,4.8578120487509295,0.9865117503357971,25.572106453124434,38.61019207420779
5.450484990957193,1.0494847382358374,0.6340039332571905,0.24546870886599212,5.38447141868528,0.2584124069094355,10.992464340291917,121.03482096022877,5.085927089268807,1.0033827867107559,27.811533642932773,39.15262805350746
5.718994796741754,1.0749883385175463,0.6523911421390949,0.2580430548255472,5.653690717299469,0.26560401152226365,10.991349242278375,121.03939371947028,5.312921715900302,1.0181915948955629,30.05137909622863,39.72645674832326
5.9859256179770455,1.1002263054613335,0.6714996948285261,0.27039351229704245,5.921506889397278,0.2725534519060766,10.99026264611166,121.04397425171109,5.5384694070671685,1.0338661606006117,32.29163539595902,40.3304573228396
6.251774207456037,1.1251552549532644,0.6912925052311039,0.2825104553691243,6.188070473843254,0.278836342715913,10.989205614547245,121.04847513005149,5.762820029747672,1.044722232877739,34.53229547198862,40.962546625029475
6.51723722810857,1.1498484244351632,0.7117363369179657,0.2944945053776672,6.453805620083585,0.2853854958257828,10.988179084844887,121.05294314818983,5.986536298936699,1.057873597311427,36.7733487226069,41.62177814236175
6.781154379015788,1.173973071852034,0.7328017635300057,0.30643704648863224,6.718344763619825,0.2924992406743131,10.98718422302045,121.05748880972496,6.208974957989994,1.0781049208561837,39.01478580478579,42.307902531917456
7.044685694621876,1.1977520637776833,0.7544609817996388,0.31794524076362574,6.982084608869627,0.29562517148323175,10.986222223145887,121.06197753963502,6.4307551712263376,1.0909069446239945,41.256601250730455,43.018377168154096
7.305347939953208,1.2205834039951482,0.7766896993998671,0.3294084161887386,7.243982214247808,0.3010991468213038,10.985293976846151,121.06653417979827,6.650324497837573,1.1110537178459032,43.49878418352455,43.75324708872611
7.565966548398137,1.243166220687647,0.7994627915613819,0.3409645402503666,7.5049292834009975,0.3083271399723086,10.984400506946258,121.07114189666413,6.869195149629377,1.1310146056626131,45.74132845085114,44.51119673347729
7.825490231625736,1.2652818537624766,0.8227588831505273,0.3524713320106187,7.764846436446533,0.31436798832162766,10.983542851987295,121.07570357630696,7.087084967293777,1.1448266787743355,47.984226568136364,45.29004000955394
8.08407033723779,1.2870018275935569,0.8465582127973903,0.3640464358407985,8.02376995771192,0.3211621274162728,10.982721829903312,121.0802430865501,7.304015346919186,1.1597233732370076,50.227467311080545,46.08893906675074
8.341547180898488,1.308319421450111,0.870842306088889,0.37528795695753187,8.281638476299122,0.32362870475440975,10.981938442215323,121.08476051867054,7.519881066866219,1.1747999109617384,52.47104009799659,46.90684331789076
8.59831246198155,1.329359886602703,0.8955941736639943,0.38686796424759873,8.538617336424068,0.3321142114242158,10.981193628278561,121.08929372067965,7.734924896387383,1.1925957787880965,54.714934062212706,47.743207725662025
8.85223279776983,1.3496112475087383,0.9207975006720517,0.39825154129999485,8.7937229659874,0.33612163484819474,10.980488430592231,121.0939011086516,7.947726433863863,1.2148959171865061,56.959139411337674,48.59781620794393
9.10254921275191,1.3688979598849857,0.9464360341371503,0.40982274612912295,9.046084190485999,0.3431380616797315,10.979823664645664,121.09846930245746,8.15732840471901,1.2297219492548297,59.20364854391664,49.4683534902893
9.352973761968315,1.3881868715582737,0.9724926384806167,0.42125834673254,9.29712182446383,0.3471109204538119,10.979199577705003,121.10301324251368,8.366042166016996,1.2449066268324396,61.44844980351627,50.35414341659371
9.601719303289428,1.4070611596144358,0.9989538800728042,0.43253275058791857,9.546652866294608,0.3498104413985871,10.978617059416138,121.1076275440013,8.573310276144184,1.2670927105150294,63.69353130925447,51.25561724369427
9.849473494337872,1.4257068704800762,1.02580670217867,0.44377882727783774,9.794929844327271,0.35355784958168246,10.978077070787549,121.1122682883874,8.77944701956585,1.2868521688707297,65.93888458702713,52.17143178469231
10.09459899761714,1.4437130116171295,1.0530390338681173,0.45514076667643083,10.041260604513809,0.35918446113867336,10.977580330451019,121.11687370114755,8.983400654862635,1.3019382603669925,68.18449915479869,53.10001726232289
10.338946440955624,1.461551450461581,1.0806383992021438,0.4666258570480465,10.286224614130333,0.3653084083448261,10.977127254707739,121.12144372338417,9.186151236877777,1.3165886821330954,70.43036238662899,54.04067540898767
10.580595165723935,1.478743867325364,1.1085939067706931,0.4782236909023931,10.529151487862691,0.37138636620768334,10.97671856044326,121.12612065822854,9.38664848334156,1.3420088554755136,72.67646127101034,54.994758623170945
10.823199713602662,1.4961987016118303,1.1368943107954692,0.48961539788103026,10.771533470368013,0.37345043356522667,10.97635507013183,121.13079389280195,9.587135662790388,1.3601166382366494,74.92278802487999,55.96008316334597
11.061665181070566,1.5126087507838248,1.165531184640713,0.5013119830925257,11.011569298570976,0.38073268074602057,10.976037522079423,121.13545895233142,9.784719414776191,1.3773445060367795,77.16933003347367,56.93600127638938
11.299038182245567,1.5286726979982375,1.1944936380314175,0.5128235218113242,11.249881969764829,0.38317174830054884,10.975766173563898,121.14016967448524,9.980664540897124,1.3986516548063441,79.41607511322945,57.9227544938083
11.5374642603565,1.5448742504948336,1.2237726015446242,0.5242776681007087,11.487855755025521,0.38585009125324843,10.975541707128286,121.14480643720508,10.176852509262972,1.4111062022525616,81.66301252972335,58.91804940828963
11.77317876345478,1.5602368837247287,1.2533609849924687,0.53596766455162,11.724300645990297,0.3922680312428761,10.975364813115448,121.14944392686077,10.371212649275549,1.4286556769613474,83.91012657992542,59.922513630687334
12.008710175286978,1.5753550104380987,1.2832503504760098,0.5475311932009747,11.959886118071154,0.39494941928039085,10.975236131460406,121.15416915368168,10.564893904840574,1.4535604413646213,86.15740461088717,60.937008314515815
12.246804834110662,1.5909750887268364,1.313433777744649,0.5589538288959586,12.196320072049275,0.39638029003361946,10.975156653672457,121.15884540698481,10.760163561208174,1.4684284126723335,88.40483662299812,61.959003802931505
12.48005118733272,1.6054012895356322,1.3439066018618178,0.5706790071846419,12.430750786326826,0.4032460379858748,10.975127345183864,121.16344929093718,10.952513841446489,1.4806112461783696,90.65240675769746,62.987723838575924
12.710622461512685,1.619259742604637,1.374660667119315,0.5824377317980789,12.662839286495,0.4079414929564923,10.97514826245606,121.16809322542973,11.1421138899168,1.5015256788373665,92.90009927377105,64.02453605808482
12.944774307310581,1.6341596644269374,1.4056880652497057,0.5942750149245244,12.895543928258121,0.41263704699248704,10.975219873478636,121.17276525891347,11.333393599139526,1.5222745376933007,95.14790247846395,65.06888661439348
13.172971321735531,1.6478878218726432,1.436984535510419,0.6059221239109932,13.125576336402446,0.4137305347810236,10.97534349153284,121.17750145681894,11.521007312228903,1.5460865479180865,97.39580281917006,66.12100189460276
13.397836786229163,1.660998394629116,1.4685423810442444,0.6175601215787212,13.352603920735419,0.41620834723245154,10.975519107072614,121.18220700623094,11.70518780243583,1.562472848725461,99.64378923829645,67.17903751631523
13.621111724991351,1.6738095242791684,1.5003536806616466,0.6294051625636884,13.577331102918833,0.42189170403079235,10.975746333482675,121.18698740654506,11.887223771773279,1.5867624210105524,101.89184714108706,68.24438692096085
13.849976819008589,1.6879210419218391,1.5324115429830272,0.6410497099583868,13.803700662683696,0.42281382215274566,10.976025680429302,121.19173879359099,12.07252850139048,1.6033153967144955,104.13996550627053,69.31507086276605
14.078546037431806,1.7018490925060212,1.5647138358617667,0.6528620914057615,14.030740892048925,0.4275255182454636,10.976358596468344,121.19638699887169,12.25860587938223,1.613210847173295,106.38812790438533,70.38960189633167
14.303984489757568,1.7148647064564704,1.5972571632592008,0.6648215466336421,14.256548719014972,0.43292198871647664,10.976745872758329,121.2011670322354,12.442722883424722,1.6419611461410293,108.63631546497345,71.47158583668057
14.520847270265222,1.7257810358967813,1.6300363542395644,0.6768503644979409,14.47745019895956,0.43741625320388455,10.977188492426649,121.20587374211705,12.620248411782086,1.6554665640472714,110.88451849110425,72.55737738923735
14.742340911179781,1.7377825557943318,1.6630427206400782,0.6888591238434023,14.698211692273617,0.4403825547093588,10.977684692945331,121.21061110704454,12.799037834862247,1.6760971677463083,113.13272076100111,73.64847771026675
14.962425416335464,1.7495980456417293,1.696272725937888,0.7008472073002358,14.9181964606978,0.4429195759475452,10.978235903428867,121.2153560318726,12.97721997089684,1.6955488156863086,115.38090812973678,74.74427677613858
15.18084729788825,1.7612851069925843,1.7297222762717865,0.7130169957536936,15.136959463357925,0.44814230443905884,10.978842659387738,121.22022754326974,13.154056222876534,1.7248610342835682,117.62906579114497,75.84656365201623
15.394530809018761,1.7722223157923407,1.7633868845296092,0.7252140539878126,15.352740480098873,0.45187847743170206,10.979505709721707,121.22502196311272,13.32717217411846,1.738136555273588,119.87718332000077,76.95169233676575
15.610176770016551,1.7838798802906168,1.7972606351249851,0.7375063997940858,15.568009805865586,0.4561535301257602,10.980223966646008,121.22980110252365,13.500546210911125,1.755075387051045,122.12524326331913,78.0605303370849
15.82409245800227,1.7953327009372104,1.831340107601136,0.7496282200976678,15.782156368717551,0.4567975305613493,10.980998386628926,121.23467853822663,13.67278717784211,1.7819181052310213,124.3732297141105,79.17483430536048
16.030927933752537,1.8052854444887938,1.865621521777939,0.7616791981731745,15.992199564818293,0.4578505791261465,10.981829743133858,121.239482562777,13.839732967782766,1.7952897249057571,126.62113096192479,80.29148918521955
16.243225620593876,1.816472863208547,1.9000983493751846,0.7736750296907431,16.202920437324792,0.459134138809491,10.982716436497867,121.24429521020458,14.008914813399315,1.8142529927141904,128.86893001943827,81.41175176507062
16.453896017745137,1.827243101949101,1.9347686496912502,0.7859379146622623,16.413164850790054,0.465103135914148,10.983660124707967,121.24917421273501,14.177629644982517,1.8386860694006522,131.11661125347018,82.53646222410894
16.661852287128568,1.837378137969312,1.969629371946212,0.7981306098462629,16.62181256664917,0.46740589919709946,10.984661578550003,121.25400399421977,14.344305967679247,1.8539206098984105,133.36416138336062,83.66346865230518
16.866627167910337,1.8468187461215875,2.0046767637250014,0.8104165014323802,16.82806967338547,0.47111207651186293,10.985720385797322,121.25884491944208,14.508145419880748,1.873418085781139,135.61156322434545,84.79368687835822
17.06934374338016,1.8558613937536863,2.039906361431349,0.8228401014670443,17.03210093686357,0.47579599398527184,10.98683642060496,121.26376812489427,14.669694874435663,1.8992832661735635,137.8588020130992,85.92822434276462
17.27451974945143,1.865552005789346,2.0753139888402075,0.8351522173568623,17.236247710417956,0.4770878782132268,10.988009824999608,121.26879476433623,14.832281007897109,1.9274847730113733,140.10586557351053,87.06731708370455
17.474977941717952,1.8743470656195906,2.1108977056574076,0.8472951375522928,17.438091945834458,0.4766225947107713,10.989241706905887,121.27373927771491,14.99187790765427,1.940369503490287,142.35274145938456,88.20758058712548
17.680251692887396,1.8843204751603264,2.146653524658177,0.8594601208163712,17.6411913363263,0.4784483293464398,10.990530936629511,121.27864258301918,15.1539513298776,1.955287160606239,144.599411373958,89.34963234525688
17.8803479061462,1.8932707557909718,2.182580462191254,0.8716818796878585,17.842328331898898,0.4813666045510577,10.99187911581248,121.28365159291083,15.313146055908874,1.9828916836583967,146.84585723280907,90.4959583784582
18.0786959878169,1.9019201916712876,2.218674908799585,0.8841766646070008,18.041608932893723,0.48775210970174,10.993286420591176,121.28858860481861,15.470256370026618,1.9965999333339746,149.09206742420793,91.64330174044551
18.27570774545893,1.9103372118248896,2.2549333870992996,0.896710289370541,18.239292243029922,0.4915480158794247,10.994752040598541,121.29363515439134,15.625808948883787,2.0243970764722117,151.3380235377699,92.79479229831362
18.468707563355565,1.9179424486843324,2.291352857486345,0.9093116580825016,18.43416991084814,0.49511310269649655,10.996276670368388,121.29858427779111,15.778089113999158,2.035981721626135,153.5837139338255,93.94664476059123
18.667224335018545,1.9268525732576032,2.327929340885021,0.9219249708763859,18.63040228234604,0.49776561184567036,10.997858879971318,121.30362723227827,15.933252847986296,2.0622464210208746,155.82911971397698,95.10219107644436
18.85840617166832,1.934403559197711,2.364662278734613,0.9341964281926267,18.82364362059161,0.4948764366091341,10.99950104067102,121.30864379245965,16.08415087289177,2.0797676240332503,158.0742275454104,96.25918484926983
19.05664525507018,1.9437497899281175,2.4015477976645343,0.9468411067240095,19.018916920758784,0.5012488204765494,11.001201673061587,121.31363211920537,16.2387130940333,2.096298346724382,160.31902123056352,97.41751712486358
19.252171551343054,1.9528984730365524,2.43858572706813,0.959300428554728,19.21384921343997,0.5015889775659464,11.002962696133181,121.31876499459554,16.39247968303971,2.1274378773599243,162.56348252296448,98.58020988733776
19.43473202176392,1.9597239573101366,2.4757743686786853,0.9718459765154853,19.40212712949142,0.5044777318237648,11.004785118624568,121.32383104446548,16.5369358016178,2.1420821008371105,164.80760031752288,99.74337037844843
19.62341604521498,1.9681911584708023,2.5131070807692595,0.9844863798713203,19.590138886589557,0.5080772012005974,11.006665001390502,121.32888886000823,16.682889697141945,2.1600367136289877,167.05135794728994,100.90799662105371
19.809314584359527,1.9763258073490788,2.5505822574486956,0.9970626212796745,19.77662420179695,0.5094418482978088,11.00860361661762,121.33398312124947,16.827347751241177,2.1821182033492788,169.29473891295493,102.07482632934764
19.990520518738776,1.983628239832383,2.5881974393851124,1.00990787887134,19.95999926701188,0.51529010565245,11.01060109550599,121.33901015703665,16.968077096156776,2.1958304013734304,171.53772880509496,103.24191585376666
20.171231427695602,1.990875068200672,2.625948923814576,1.0226129897720226,20.141571279149503,0.5160335397397368,11.012655996717513,121.34412039993241,17.107346390374005,2.221437528111739,173.78031012043357,104.41193739473637
20.35395648283884,1.9985204098483385,2.6638342372025363,1.0352890215774098,20.32324815960601,0.5171384162986086,11.014768830849789,121.34920754278787,17.247592855012044,2.2391566036564643,176.0224705338478,105.58289173507043
20.538693563081324,2.0066022025423536,2.701852246944327,1.048168426350319,20.505982962902635,0.5218889233505198,11.016940055298619,121.35429910801555,17.389546365011483,2.258543884055691,178.2641930822283,106.75522351918096
20.7270130882971,2.0155068180147717,2.740002466889564,1.0608120277241493,20.691037592943758,0.5208355662248471,11.01917094644159,121.35949168144765,17.534525361377746,2.2862502035327124,180.50546155311167,107.93063256109134
20.904867727309465,2.0223898074062725,2.7782854870310985,1.0737058806024173,20.87201904365793,0.5257977115162312,11.02146370941773,121.36461116409433,17.67309248750098,2.3001874568514347,182.74626243673265,109.10587675780997
21.07844523852691,2.0285882672802056,2.816697132016998,1.086208570457922,21.04882506839931,0.5223184316733078,11.023815406253561,121.36983079774363,17.806748127331957,2.3273251339078422,184.9865780826658,110.28408066599197
21.255291774403304,2.035697441049996,2.855233507405501,1.0988043325791497,21.225177164189517,0.5241288593312651,11.026225141016766,121.37497975624764,17.941224939422682,2.341285046590881,187.2263973262161,111.46206265023226
21.429349928162992,2.042416565038942,2.8938931599259377,1.1114936400876019,21.399907825049013,0.5272818982381549,11.028692972147837,121.38029463806461,18.07400267617777,2.3738718540710266,189.46570163220167,112.64411412538628
21.6063551469706,2.0498302351419473,2.932673926872667,1.1245024902574572,21.575301062781364,0.5342948683140374,11.031219653552398,121.38560383493397,18.208340350538492,2.393809259412537,191.70448168367147,113.8270232919665
21.777007270604372,2.055957515088928,2.971575212199241,1.1372755670964136,21.747849020641297,0.5336522346494152,11.033805584535003,121.39085454910783,18.338705639354885,2.4083014815677886,193.9427209291607,115.00977818453141
21.946047828998417,2.0616760269545034,3.010594234743621,1.1504773929261525,21.918168091215193,0.5414131618239959,11.036449152161367,121.39616617682604,18.466758149210364,2.4321828439775808,196.18040222860873,116.19454085826472
22.112408697605133,2.0667261687471994,3.0497284212033264,1.1636390506825134,22.08603303320706,0.5439929604358074,11.039150293217972,121.40138148662957,18.592248294269666,2.4438389008472474,198.4175128377974,117.37837334207852
22.279600703623146,2.071922389064715,3.0889753238880076,1.1764502702347468,22.25308626750484,0.5403792365328823,11.041907563456334,121.40674427162106,18.71755896299146,2.474595180164676,200.65403450652957,118.56573953775833
