coupler,coupler,$D^a [mM]$,$D^a [mM]$,$I_{islet}^a\ [pg/islet]$,$I_{islet}^a\ [pg/islet]$,$\gamma^b$,$\gamma^b$,$I_{cell}^b [pg/islet]$,$I_{cell}^b [pg/islet]$,$G^b [mM]$,$G^b [mM]$
2.696762793639209,1.0730048205154203,0.5037754067016067,0.07092108761049457,2.4522280980017968,0.14184188565072442,11.004381649428979,120.98939653953352,2.6286944411403965,4.433902590240901,5.436810191196855,35.35626737027348
2.9783703784341924,0.9652048359494774,0.5105377633444732,0.10010755048904561,2.8190937636536546,0.17124653438446913,11.003262925427407,120.99399639522333,2.960140207258519,1.0937329639144837,7.672405774123035,35.55952782683882
3.2582498947158456,0.925651765543086,0.5193568269605748,0.12275097639733083,3.1423714489792474,0.18760154074287122,11.00194614729844,120.99850071983565,3.2307686556014232,0.701444655471914,9.908384029869922,35.804507765046324
3.536624928470701,0.914542032935534,0.5297803154535359,0.1425465113492838,3.44307354465127,0.20143870105341455,11.000640945741907,121.0030364004481,3.488026858307421,0.7025682194608838,12.144812957616523,36.09061155160081
3.8134227318223566,0.9190632056144185,0.541554655879736,0.16012356605982223,3.731676433351822,0.21149658630126955,10.999356374377385,121.00753112099437,3.741345275368076,0.7182796195088922,14.38169435528107,36.41665225178248
4.090087610296905,0.9329006689566036,0.5545194574078778,0.17607591978296738,4.014144065207802,0.2194510799211236,10.998093902948312,121.01209476514063,3.993765417370014,0.7398343517282973,16.619022304425016,36.78199212622338
4.365623693098314,0.9523242320378469,0.5685636455746135,0.19124454235911797,4.292962799896486,0.22891788591109402,10.996855085948482,121.01662952952796,4.24509894521907,0.7559894778420182,18.856793602462858,37.185090124523974
4.6396248346427456,0.9749470219837941,0.5836007753823651,0.205805653556893,4.569174420554191,0.23831571901585996,10.995641247951426,121.02123196916347,4.494983297714498,0.777375684538804,21.095001137349755,37.62523339068432
4.910768695524894,0.9990674564296593,0.5995598210138269,0.2195523996364612,4.842639917391352,0.24500800336360967,10.994453840190545,121.02578504144931,4.742288154899143,0.791710308401304,23.33364101522602,38.10051835534746
5.180565510760061,1.0239848039092672,0.6163786121614976,0.23272840282796542,5.114045893424191,0.2513971072276728,10.993293938343413,121.03031439715507,4.9879956701770425,0.8069033926779466,25.572705005994067,38.609759632978026
5.450484990957193,1.0494847382358374,0.6340038970374735,0.24580373441769315,5.384471438941546,0.2603540843457358,10.992162833339535,121.03486214558231,5.233478117559571,0.8246135939938183,27.812185228336602,39.1519095178307
5.718994796741754,1.0749883385175463,0.6523908494127681,0.25839105859689865,5.653690788545646,0.26631899757143646,10.991061991197057,121.03946411122436,5.47778414550703,0.8448070074469005,30.052074604202062,39.72592371697297
5.9859256179770455,1.1002263054613335,0.6714993145869812,0.2706390596199264,5.921506997081451,0.2719822948497486,10.989992753253318,121.04396920912865,5.720588099968154,0.8544987211721403,32.29236718919128,40.32927188395117
6.251774207456037,1.1251552549532644,0.6912921906914562,0.28278431061859177,6.18807058443781,0.27904449466577,10.98895613104105,121.04841918165042,5.962222298316192,0.8662179218830794,34.53305127751082,40.96090576243675
6.51723722810857,1.1498484244351632,0.71173600005568,0.2947548875175557,6.453805738361552,0.2854151819705,10.987953411298804,121.05293918278566,6.203310641634744,0.8869586177159494,36.77411629538983,41.62061797777381
6.781154379015788,1.173973071852034,0.7328014241211349,0.3067551979087733,6.718344884924591,0.2931519389815125,10.986986093805172,121.05745370201352,6.443049756810069,0.9024387271174545,39.01555568072945,42.30645581010277
7.044685694621876,1.1977520637776833,0.7544605799630517,0.3182479788803577,6.982084744377062,0.29574866083551987,10.986055257031694,121.06202134219545,6.682207053760067,0.9220587677742759,41.25735990703106,43.017750252569925
7.305347939953208,1.2205834039951482,0.7766892866784474,0.32996825862221074,7.243982357205823,0.3038307067387863,10.985162274912,121.06653724388175,6.918949511600658,0.9336426717725524,43.49952109204605,43.75223121680802
7.565966548398137,1.243166220687647,0.799462146620499,0.3413740454950321,7.504929495975375,0.30763968714951284,10.984307943261229,121.07106613814287,7.155170938116498,0.9497410047860991,45.742027644533664,44.50939062126892
7.825490231625736,1.2652818537624766,0.8227582941181026,0.352812571772839,7.76484665623866,0.313620852532246,10.98349361110013,121.07560840256541,7.390409164596349,0.9659866251790995,47.984869563020766,45.28810927676436
8.08407033723779,1.2870018275935569,0.8465576817688998,0.36432346973983043,8.023770166095346,0.3204080143137285,10.982720447937027,121.08015332651767,7.624692927231081,0.9812675935363382,50.22803664114326,46.08718520690819
8.341547180898488,1.308319421450111,0.8708418310561683,0.37583322365497246,8.281638663029298,0.3264726693787429,10.981989583466202,121.08473632316152,7.857900305767544,0.9993879136829229,52.471517898608,46.90599781816088
8.59831246198155,1.329359886602703,0.8955935002013575,0.3872903973212199,8.538617589278147,0.33162872212412514,10.981302198721096,121.08929259730046,8.090320378309116,1.0120635502965876,54.71530340332538,47.74278462929306
8.85223279776983,1.3496112475087383,0.920796859980328,0.39881498626788003,8.793723221868277,0.337729980559618,10.980659313849173,121.09392171652051,8.320304335094988,1.032986535846607,56.959380398504436,48.59782401230282
9.10254921275191,1.3688979598849857,0.9464352903014515,0.41005511233948444,9.046084495494142,0.3399200219691937,10.980061940383166,121.09849470306374,8.546915348968469,1.0429156551695853,59.203739972785115,49.46860283622799
9.352973761968315,1.3881868715582737,0.9724920935695991,0.42158479899404605,9.29712205636315,0.3474852921011762,10.979510388686322,121.10304613593463,8.772935768705793,1.0551327035187037,61.44836845714599,50.354694879981984
9.601719303289428,1.4070611596144358,0.998953313450329,0.43298983287852716,9.546653093304485,0.35154593595230743,10.97900581615977,121.10761898285496,8.997492476832122,1.0711986883142466,63.69325258396566,51.255850116861104
9.849473494337872,1.4257068704800762,1.0258060372725595,0.4440479378283482,9.794930116506293,0.3518671226456829,10.978549232357182,121.11212542293198,9.220961089828052,1.0793030517457967,65.93838056176901,52.17012229230689
10.09459899761714,1.4437130116171295,1.0530384611629415,0.45538254722431665,10.041260838741437,0.3585199126733688,10.978141399449669,121.11667508648459,9.442106966045685,1.0970297218814544,68.18373703490943,53.09826965120924
10.338946440955624,1.461551450461581,1.0806378617708106,0.4667854075019721,10.286224822280928,0.36421469034700804,10.977783236186951,121.12133012734267,9.662163801724091,1.1208628789876824,70.42931072134525,54.04047829574557
10.580595165723935,1.478743867325364,1.108593425276922,0.4781575068564144,10.529151655035093,0.3683866090502278,10.977475829306059,121.12600823910496,9.87984192254953,1.1372915460809274,72.67509203590453,54.99495361427232
10.823199713602662,1.4961987016118303,1.1368939774401952,0.4895802329869555,10.77153353812173,0.3730749563950443,10.977219586842693,121.13054426476555,10.097807098878548,1.1376130876246948,74.92106841877103,55.95871713316604
11.061665181070566,1.5126087507838248,1.1655308691842947,0.5011592593859293,11.01156932162121,0.3791611326910418,10.977015270036645,121.13513083755761,10.3125166723039,1.1555484202461435,77.16722045931965,56.933964952608896
11.299038182245567,1.5286726979982375,1.1944933953636792,0.5127496171023329,11.249881929950789,0.3837349217186745,10.976863696239889,121.13975062327906,10.525699579622597,1.1724049247063157,79.41353650577366,57.919900471972596
11.5374642603565,1.5448742504948336,1.2237723337311763,0.524088070242346,11.487855710089207,0.38448676751185207,10.976765559404157,121.14432533399942,10.739418138749897,1.181505866257325,81.66000360623002,58.914845078251886
11.77317876345478,1.5602368837247287,1.253360775852343,0.5355897717683183,11.724300551926717,0.3894563737038112,10.976721868035384,121.14891856265653,10.95107320160605,1.1965106231760256,83.90660514775664,59.91926296057874
12.008710175286978,1.5753550104380987,1.2832502593228128,0.5472595940964745,11.95988592109643,0.39552730808847403,10.97673334251158,121.15347416792204,11.162167878123,1.206052778163407,86.15332727599889,60.931841456789314
12.246804834110662,1.5909750887268364,1.3134336629300378,0.558764684529993,12.196319864364341,0.3975326134379495,10.976800746284425,121.15808426714858,11.375199977192096,1.224555681034454,88.40015350095928,61.95355760151995
12.48005118733272,1.6054012895356322,1.343906441674335,0.5703015693883882,12.43075060355477,0.4009987020656737,10.976925932685845,121.16269403174046,11.584739955607802,1.2379812476948033,90.6470697261393,62.98315332910508
12.710622461512685,1.619259742604637,1.3746605928463396,0.5819149466180181,12.662839038763195,0.4053605026332467,10.977108878665604,121.16723779226704,11.791440626839176,1.244311835343956,92.89406090602279,64.01921516094873
12.944774307310581,1.6341596644269374,1.4056880873686168,0.5935031047901064,12.895543578546494,0.4085408206327484,10.977349625551142,121.17185963832236,12.000437182723545,1.2649971734022867,95.14110942184925,65.06364761781984
13.172971321735531,1.6478878218726432,1.4369847063499037,0.6052328775956717,13.125575822312385,0.41362353445822964,10.9776502790628,121.17639979289395,12.205128504894674,1.2698237484739507,97.38820136431605,66.11356691969941
13.397836786229163,1.660998394629116,1.4685425555508118,0.6167590157010361,13.352603352162987,0.41448708604024886,10.978010153165087,121.18114979199517,12.406293114763685,1.3041291400103212,99.63531839754432,67.17331395306262
13.621111724991351,1.6738095242791684,1.5003539136669133,0.6286141409515998,13.577330451458693,0.4213988870147681,10.978430113289505,121.1858209205038,12.60547969955951,1.3095183905632852,101.88245267327875,68.23792331270272
13.849976819008589,1.6879210419218391,1.5324117916461546,0.640326938920329,13.803699967451394,0.423427557829785,10.978909644065425,121.19044933985856,12.808742608642206,1.317341445221787,104.1295852214098,69.30769329203177
14.078546037431806,1.7018490925060212,1.5647140637447592,0.6519914843190016,14.030740198679268,0.425460227298839,10.979451010585763,121.19514115809332,13.012584039242938,1.3365866791473318,106.3766967933625,70.38408229117871
14.303984489757568,1.7148647064564704,1.5972574561019428,0.6639406852848807,14.256547945085913,0.43205459781360606,10.980055746389553,121.1998110632861,13.21403670636937,1.3472712450567963,108.6237724032253,71.46542490324173
14.520847270265222,1.7257810358967813,1.6300366737996228,0.6756893283633071,14.477449375670403,0.43309931071131264,10.980723822140135,121.20450930804576,13.40815135021694,1.3628664578325937,110.87079432606697,72.55230668469639
14.742340911179781,1.7377825557943318,1.6630431719240732,0.6874371994551163,14.698210698086768,0.43538727236082975,10.981454018154182,121.20919925396043,13.604503497947007,1.3744676640585392,113.11774805188179,73.64388508651356
14.962425416335464,1.7495980456417293,1.6962733250693418,0.6994410723406314,14.918195233214647,0.4415614936208782,10.982247833744623,121.21391630809036,13.800176377175376,1.3897945791628843,115.36461541801691,74.74053086208811
15.18084729788825,1.7612851069925843,1.7297229136456735,0.7115932429327251,15.136958112474531,0.4472225831830885,10.983106091385707,121.21862142926516,13.994384022196755,1.4010178316383988,117.6113800201565,75.8413773562743
15.394530809018761,1.7722223157923407,1.7633875472820364,0.7235851758814568,15.352739046793431,0.44842432079908084,10.98402908432763,121.22334118142322,14.184508773963898,1.4148999658739023,119.85802388377488,76.94667555688504
15.610176770016551,1.7838798802906168,1.7972613945021294,0.7355060430839585,15.568008203059435,0.44965449544009906,10.98501642420888,121.22800138731978,14.375387906096876,1.4205984222665664,122.1045307610184,78.05497985405583
15.82409245800227,1.7953327009372104,1.8313410446280614,0.7476934951546287,15.782154459971935,0.4556534741683765,10.986068956786767,121.23272585131086,14.565034847939387,1.439594321428884,124.3508804757148,79.16822418500462
16.030927933752537,1.8052854444887938,1.8656224883743562,0.7596565718913667,15.992197519633919,0.4558627627531413,10.987187575316057,121.23742781770036,14.748772505437955,1.4495088278180885,126.59705762006342,80.28475033752257
16.243225620593876,1.816472863208547,1.9000993668450974,0.7719084799253044,16.202918256632984,0.461865464210336,10.988370758946985,121.2421645309569,14.935699539724737,1.4652046915338646,128.84304474294186,81.40538333559982
16.453896017745137,1.827243101949101,1.9347695944015868,0.784007156905805,16.41316273389384,0.46301372606901875,10.98962064657826,121.2468810829637,15.121964222053066,1.475126743847155,131.0888243522495,82.5290201627785
16.661852287128568,1.837378137969312,1.9696303681121208,0.796201218119221,16.621810368727893,0.46647588770422616,10.990937636932358,121.25160983705769,15.30592690804042,1.488395710539256,133.33437744528055,83.65607728474498
16.866627167910337,1.8468187461215875,2.004677781078499,0.8083785480826688,16.82806741585955,0.4688766002254445,10.992321840138175,121.25636554993217,15.486886004451662,1.5033822854643604,135.57968658581376,84.78667165978807
17.06934374338016,1.8558613937536863,2.039907431753818,0.8207602970195556,17.032098576892167,0.4741854620377334,10.993773018708453,121.2610534344361,15.665599831845611,1.5076494458360519,137.82473497837782,85.91901951255164
17.27451974945143,1.865552005789346,2.0753150958917104,0.8329738692976959,17.236245242413133,0.47479362227451893,10.995290729217231,121.26583214084165,15.845834371400997,1.5293427686141035,140.06950231269002,87.05577452769835
17.474977941717952,1.8743470656195906,2.1108988643973134,0.8454182501236587,17.43808935256675,0.4800139035181001,10.99687694676686,121.27066857504792,16.02260121377185,1.5480435182029022,142.3139731194824,88.1962265315611
17.680251692887396,1.8843204751603264,2.1466546027804725,0.8577615438843683,17.641188838984817,0.4815290797747002,10.998531015473418,121.27550432950439,16.20252950815484,1.5599335009591457,144.55813154019415,89.33922999695443
17.8803479061462,1.8932707557909718,2.18258146813605,0.8701910412300207,17.842325983103365,0.48485027830114646,11.000254663289525,121.28029902326836,16.378950737183914,1.567045862038607,146.80195799469948,90.48396477117971
18.0786959878169,1.9019201916712876,2.2186758339521475,0.8827860554542303,18.041606784332544,0.48977835104334977,11.002047111629508,121.28517150681002,16.553274907637388,1.587383880276077,149.0454327929765,91.63243323012215
18.27570774545893,1.9103372118248896,2.2549342661513947,0.8951821911851873,18.239290241152048,0.4897211429178229,11.003908775630407,121.28993528302819,16.726113630691543,1.5868833834038418,151.2885404713452,92.781224905816
18.468707563355565,1.9179424486843324,2.29135377536295,0.90764821023229,18.434167880564928,0.49232853070882804,11.005839001270942,121.29481386414507,16.895448861643672,1.6111028089908832,153.53125838935375,93.93422840684872
18.667224335018545,1.9268525732576032,2.3279303167946637,0.920310018572114,18.63040013005957,0.4974548122083256,11.007838035700843,121.29956766322323,17.06850032089278,1.6086700173071,155.77357290312648,95.08707639792831
18.85840617166832,1.934403559197711,2.3646632595336996,0.9329311750228836,18.823641426395625,0.49972649609751424,11.009907056810334,121.30441664202463,17.236430564895272,1.630626266462409,158.01545958779752,96.24362163558959
19.05664525507018,1.9437497899281175,2.401548676250968,0.9453270950574072,19.01891493331641,0.4984524199476827,11.012045614188537,121.30934523507527,17.408986046444625,1.651600867880312,160.2569041531533,97.40349245900053
19.252171551343054,1.9528984730365524,2.4385866608354263,0.9578495125070791,19.213847142178565,0.5015463334664843,11.01425627421122,121.31424289425811,17.580300160916522,1.6599462715937718,162.49788912944496,98.5646181102312
19.43473202176392,1.9597239573101366,2.4757753017474897,0.9705195234931987,19.402125040534884,0.5060645121110213,11.016538735013455,121.3191474610691,17.74099731235765,1.6721086064527202,164.73839403688908,99.72760746957216
19.62341604521498,1.9681911584708023,2.513107981241774,0.9830563245621927,19.59013687307015,0.5066377806362624,11.01888935547322,121.32402918365077,17.904474047245458,1.680670246439771,166.9784023631364,100.89185639378312
19.809314584359527,1.9763258073490788,2.5505831844056956,0.9956250738279098,19.776622128672898,0.5086913730584282,11.021309798117727,121.32896196977556,18.06628261716105,1.6977485497587832,169.21789403818548,102.05862991215548
19.990520518738776,1.983628239832383,2.5881983796716668,1.0084709511049856,19.959997152443975,0.5148338912067921,11.023800329654478,121.33385201475164,18.224007923621684,1.7042124815016033,171.45685227029026,103.22616270452859
20.171231427695602,1.990875068200672,2.6259498706203885,1.021194220133412,20.141569126863033,0.5159217487411495,11.026359371142462,121.3387955638794,18.380525189451873,1.7213566051632976,173.69525760225952,104.39613902361899
20.35395648283884,1.9985204098483385,2.663835184823256,1.0339942863999922,20.32324599707499,0.5187411795583039,11.028987423633225,121.34373567398592,18.538416935130954,1.7322601543504963,175.93309366889298,105.56746017418804
20.538693563081324,2.0066022025423536,2.7018531638314016,1.0468183064502186,20.505980868358165,0.5211925849046746,11.031685429392383,121.34866653348526,18.698198148049414,1.742270683752389,178.17034124210477,106.73996277284633
20.7270130882971,2.0155068180147717,2.740003394894302,1.0595592579908901,20.691035483963788,0.5219122526203577,11.034454790293239,121.35355051116258,18.86122828000225,1.747864187254453,180.40698049031198,107.91290817141098
20.904867727309465,2.0223898074062725,2.7782863939064555,1.0726012942390137,20.8720170003362,0.5281080203313426,11.037297395057976,121.35852035682284,19.016541564371437,1.7689522544663863,182.6429894976318,109.08866250694422
21.07844523852691,2.0285882672802056,2.816697995061986,1.0854749435619766,21.04882315173745,0.5284550534427545,11.040211028652266,121.36346994202252,19.166895245201886,1.777999696682993,184.8783536888659,110.26523170091129
21.255291774403304,2.035697441049996,2.8552342611947097,1.0981601736229993,21.2251756018959,0.5269264579327297,11.043193497345783,121.36845790802306,19.318877797573805,1.793335629533924,187.11305456981063,111.44364063654807
21.429349928162992,2.042416565038942,2.893893864180427,1.1110198529270443,21.3999065104872,0.5305207105415864,11.04624636110384,121.37342158231843,19.468961178325117,1.8015971905931447,189.34707441180944,112.62269119221448
21.6063551469706,2.0498302351419473,2.9326745753060095,1.1237822024951474,21.575300007127225,0.5311663312208198,11.049368988373317,121.37852970880589,19.621028293156996,1.829356369206245,191.5803940501064,113.80542694463412
21.777007270604372,2.055957515088928,2.971575912903063,1.136708662378173,21.74784788163379,0.5351448855425205,11.052563692443073,121.383569430611,19.768415736965835,1.8329771956161172,193.81299937702715,114.98788626207865
21.946047828998417,2.0616760269545034,3.0105949091375805,1.149658431373315,21.918167039286345,0.537749330914251,11.055827777367085,121.38862622142804,19.913584203226492,1.845545944362404,196.0448698475957,116.17160518193691
22.112408697605133,2.0667261687471994,3.049729155434761,1.1625242064794592,22.086031797807664,0.5383054013644344,11.059161100653,121.39361425629545,20.056171489180997,1.8482951652391384,198.27598811499774,117.35496735564064
22.279600703623146,2.071922389064715,3.088976150320377,1.1752761243294916,22.25308467866853,0.5378225722791812,11.062562499078922,121.39864211488688,20.198913985164836,1.8634042642945,200.50633399188519,118.53993838962921
