coupler,coupler,$D^a [mM]$,$D^a [mM]$,$I_{islet}^a\ [pg/islet]$,$I_{islet}^a\ [pg/islet]$,$\gamma^b$,$\gamma^b$,$I_{cell}^b [pg/islet]$,$I_{cell}^b [pg/islet]$,$G^b [mM]$,$G^b [mM]$
2.696762793639209,1.0730048205154203,0.5037754067016067,0.07178584009605729,2.4522280980017968,0.14357139411010197,11.004381649428979,120.98937080465542,2.560626089310972,8.833717411423798,5.436810191196855,35.35624175137689
2.9783703784341924,0.9652048359494774,0.5105371571407886,0.10066280608051044,2.8190938092884608,0.1714370466112039,11.00395474419929,120.9939288430507,2.914682694361545,3.6717763098644856,7.672423659125343,35.559524052030106
3.2582498947158456,0.925651765543086,0.5193561604974093,0.12305515762205756,3.1423715217388235,0.18710431364047544,11.002781266230159,120.99846493638805,3.185103030700702,1.819706062891813,9.908221658319235,35.80470482724845
3.536624928470701,0.914542032935534,0.5297797887033084,0.14267117194870843,3.4430736178765073,0.2007334023568555,11.001506189466454,121.00304638446448,3.4211640919093043,1.3265934783301425,12.144432024797425,36.09109558317354
3.8134227318223566,0.9190632056144185,0.5415543061535573,0.16002565596020102,3.7316764899296686,0.21029820325781115,11.000231205369346,121.00750241927128,3.642528045224026,1.2418162193353899,14.381094005191699,36.41715269110993
4.090087610296905,0.9329006689566036,0.5545193759753602,0.17612541529902087,4.014144087326713,0.21992897040566867,10.998972268775105,121.01209688655082,3.8579254911164753,1.24331408340165,16.618207245366648,36.78278672379269
4.365623693098314,0.9523242320378469,0.5685634681285592,0.19137006009348295,4.292962818872184,0.22951569281104922,10.99773264117539,121.01672285559988,4.070251137483865,1.2545317389513584,18.85577413602732,37.18649046703658
4.6396248346427456,0.9749470219837941,0.5836004879820393,0.20554482401772167,4.569174450705759,0.23598773598373704,10.996513416990638,121.02130330273256,4.280419127841014,1.2645349965265806,21.093791488092393,37.6266580710452
4.910768695524894,0.9990674564296593,0.5995599243615288,0.2193323506701788,4.842639897018671,0.2446158371377686,10.995315418462269,121.02583168162592,4.488001771387644,1.274328804557238,23.332252774387598,38.10192951812555
5.180565510760061,1.0239848039092672,0.6163787759287516,0.23260897676770123,5.114045844995417,0.2519597214354866,10.99413942208048,121.03031155329184,4.693734244501684,1.2845894896891505,25.571151106618345,38.61096755789918
5.450484990957193,1.0494847382358374,0.6340039805072593,0.24555640853800956,5.384471392026171,0.2594373688215191,10.992986262775958,121.03487133128391,4.898792566906195,1.3005003587029158,27.81047929916531,39.15331849705289
5.718994796741754,1.0749883385175463,0.6523910541873192,0.2583634690000029,5.65369072125759,0.26780141669794644,10.99185704626143,121.03940248387555,5.102727863471955,1.313718260311565,30.050234264694154,39.72688182074217
5.9859256179770455,1.1002263054613335,0.6714993362402311,0.27064721352747073,5.921506955404766,0.2726425101666499,10.990752559737302,121.04394382668994,5.305259054584894,1.32870814897653,32.29040879616514,40.330609103598775
6.251774207456037,1.1251552549532644,0.691292136485572,0.28289614763773074,6.1880705644143745,0.2801330709305344,10.989673681324348,121.0485092002029,5.506571876525413,1.3452043438040182,34.53099694289267,40.96329834925205
6.51723722810857,1.1498484244351632,0.7117358283139765,0.2948780405765273,6.4538057507015765,0.28582793980359966,10.988621280062944,121.05298802581426,5.70715873647714,1.3576487966127944,36.771992970258,41.622645515298096
6.781154379015788,1.173973071852034,0.7328012105426751,0.30673790440692067,6.718344921944663,0.29196290568220146,10.987596098566428,121.05755604770373,5.906520507240202,1.37787246405911,39.01338671846315,42.30898318293136
7.044685694621876,1.1977520637776833,0.7544604803988477,0.31846966985592096,6.9820847634691745,0.29779991865053135,10.986599184339866,121.06214278074577,6.1051537378225476,1.3967607373045696,41.255174374207854,43.02041535580846
7.305347939953208,1.2205834039951482,0.7766890027996851,0.3301899433529104,7.243982422165573,0.30441019055903795,10.985631345072761,121.0666892013159,6.301767171127722,1.4132094738172756,43.497349101584405,43.755122432995805
7.565966548398137,1.243166220687647,0.7994618134398479,0.34174872313572524,7.504929586546496,0.3094392381706646,10.98469314223621,121.07128698337027,6.4975396854570135,1.4341125702520143,45.739902049768716,44.51289004398962
7.825490231625736,1.2652818537624766,0.8227578154474031,0.35315062668855984,7.764846799662337,0.3138047852689525,10.983785523101687,121.07588325119087,6.69231220963411,1.4536943262702662,47.98282722057775,45.29202379021347
8.08407033723779,1.2870018275935569,0.8465571891283616,0.3647164989385168,8.023770331637934,0.3211577301692937,10.982909209793434,121.08051348848389,6.886112031759694,1.4753079947500054,50.226116470992565,46.09184038396584
8.341547180898488,1.308319421450111,0.8708412836713251,0.3761248346434776,8.281638858607039,0.3256801213293153,10.982065028860234,121.08508107274474,7.078854389721528,1.4928354596375755,52.46976273180917,46.91017153840791
8.59831246198155,1.329359886602703,0.8955930086085573,0.38760589567717346,8.538617774145678,0.3317957863433728,10.981253561214544,121.0896794732849,7.270740531850606,1.5148630076926357,54.71375521272421,47.74712608134706
8.85223279776983,1.3496112475087383,0.9207963575900067,0.39886361869999865,8.793723413022235,0.33485614811458436,10.980475713731721,121.09418550554219,7.4605711083859205,1.5316171251595285,56.95808627922088,48.60023723230577
9.10254921275191,1.3688979598849857,0.9464349727786612,0.41041255126302406,9.046084612142295,0.34277262245583934,10.979731819126755,121.09885855756878,7.647411126410589,1.5614796185355075,59.20274392142892,49.47186243410837
9.352973761968315,1.3881868715582737,0.972491600405192,0.4217122135911242,9.297122230986133,0.345625680393905,10.979022683459334,121.10344938938496,7.833114030305296,1.5806230183195662,61.44772570580244,50.35796628476163
9.601719303289428,1.4070611596144358,0.9989529305021279,0.4329528735014207,9.546653228346258,0.34918399721503135,10.978348539560102,121.10807537652958,8.017348960973322,1.6046641089949814,63.693019384518266,51.259261876612115
9.849473494337872,1.4257068704800762,1.025805788434809,0.44426513686006835,9.794930175878108,0.35432572787524613,10.977710130391642,121.11277816091648,8.200396376661956,1.6320984299693344,65.93861702084541,52.17554775510646
10.09459899761714,1.4437130116171295,1.053038078796817,0.4556640125114064,10.041260943515226,0.35996801119011335,10.97710817726329,121.11742015612457,8.381386203109287,1.6529441848505213,68.18451188877225,53.104226318014206
10.338946440955624,1.461551450461581,1.0806374033272732,0.4671006198242545,10.286224975949153,0.36506775443542383,10.97654282010626,121.122090363594,8.561080890474841,1.677884745131905,70.43069228623062,54.04583242979071
10.580595165723935,1.478743867325364,1.108592923352262,0.47848300296569146,10.529151845024899,0.3688175828902571,10.976014755899087,121.12674603480865,8.738633245928213,1.701410787853409,72.67714950628579,54.9991139991481
10.823199713602662,1.4961987016118303,1.1368934547354002,0.48986225717656956,10.77153375535272,0.37273420119683903,10.975524264737032,121.13138452671468,8.915897254017182,1.7248076419454244,74.92387331649661,55.9634137909757
11.061665181070566,1.5126087507838248,1.1655303631268907,0.5012495471593772,11.011569541878998,0.3767497800156493,10.975072043132968,121.13605353217604,9.090557751129381,1.7511435721190127,77.170852788724,56.93883908828059
11.299038182245567,1.5286726979982375,1.1944930007739458,0.512514514268324,11.249882081290707,0.3790314368799328,10.97465841122903,121.14082574507147,9.263516828999855,1.7822763864471254,79.41807919554412,57.9259128973959
11.5374642603565,1.5448742504948336,1.2237721486308146,0.5239274167005128,11.487855700077489,0.38421076594312,10.974283940391615,121.14558479757495,9.436422806698829,1.8078767803484226,81.66554605867714,58.92239530664775
11.77317876345478,1.5602368837247287,1.2533606023353059,0.5353917682952292,11.72430048813112,0.3888613648347969,10.973949119914323,121.15023243217509,9.60767632862553,1.8272790846465947,83.9132420970127,59.926316472533244
12.008710175286978,1.5753550104380987,1.283250110805966,0.5469430053847504,11.959885813994333,0.39378830381019875,10.973654026631266,121.1549748242413,9.778154942439869,1.8576312988092514,86.16115274000913,60.94034059725416
12.246804834110662,1.5909750887268364,1.3134335853683297,0.5586760519752421,12.1963196832221,0.3999929568204122,10.973399671725929,121.15975558077739,9.949857725179754,1.8867365167305068,88.40927064139396,61.963170582758835
12.48005118733272,1.6054012895356322,1.3439062666438986,0.5701224282924504,12.4307504768949,0.4003909152834841,10.973187006544322,121.16453230535957,10.119137494941242,1.9134997206759317,90.65758559014648,62.99373827855837
12.710622461512685,1.619259742604637,1.3746604409534484,0.5816784320865476,12.662838899996132,0.40439988365310575,10.973016060423106,121.1693438539163,10.285839509801008,1.94229539867709,92.90608651563525,64.0322627152037
12.944774307310581,1.6341596644269374,1.4056879708077759,0.5934070515286566,12.895543411839753,0.4101168580345725,10.972886997857131,121.17415544400592,10.45365543605294,1.9695722096053818,95.15476386807859,65.07782963214382
13.172971321735531,1.6478878218726432,1.436984532425413,0.6049562513780422,13.125575699377805,0.4115598484872583,10.972800704068504,121.17893800309817,10.618340878630988,1.9951633388280958,97.40360570140183,66.12962973256192
13.397836786229163,1.660998394629116,1.468542454735143,0.6165882723771006,13.352603167761117,0.41534072775753283,10.972756998729892,121.18369706664897,10.779772251378745,2.0209189755438772,99.6525999745354,67.18742542259743
13.621111724991351,1.6738095242791684,1.5003537831071299,0.6285021840930182,13.577330279164016,0.42236111183672514,10.972755713621154,121.18857987573905,10.93894494487904,2.055349078639325,101.90173489507288,68.25328320813621
13.849976819008589,1.6879210419218391,1.5324116287229117,0.6402418646410665,13.803699831943959,0.4240063650263894,10.972797321737744,121.19340817869526,11.100565739907324,2.080961760679858,104.15100383386016,69.32401421312859
14.078546037431806,1.7018490925060212,1.5647138817585073,0.6521541790567736,14.030740092508495,0.4289888579156634,10.972882663598284,121.1982656727087,11.26298583240714,2.1102735594999724,106.40039223060012,70.40071048879734
14.303984489757568,1.7148647064564704,1.5972571615711786,0.664082280828983,14.25654797302559,0.43267584894560596,10.97301277925726,121.20314988007826,11.423845030134544,2.1402143560772964,108.64988874271512,71.48306796049619
14.520847270265222,1.7257810358967813,1.6300363598274998,0.6760161988515827,14.477449466008693,0.4358607399180306,10.973187925410457,121.20796661020114,11.578932499978691,2.1649047341988914,110.89948236010969,72.569280725562
14.742340911179781,1.7377825557943318,1.6630427732598037,0.688041626684576,14.69821090856567,0.44002490448936726,10.973406876786612,121.21286185894519,11.734488031477667,2.197291952816696,113.14915971830487,73.66154925098648
14.962425416335464,1.7495980456417293,1.6962727886275388,0.7001065854507637,14.918195655103773,0.4437071236662706,10.973670752951875,121.21782751463486,11.889383766334504,2.230581876319764,115.39891136065125,74.75951064960361
15.18084729788825,1.7612851069925843,1.7297223148634657,0.7121879218645171,15.13695867313072,0.44692096479846105,10.973980016307905,121.22280229764768,12.043016641866416,2.2605991109567727,117.64872757345438,75.86192047833731
15.394530809018761,1.7722223157923407,1.763386957522016,0.7242438443543171,15.352739645633847,0.44939247425844076,10.974334726342931,121.22779591539395,12.19330015371088,2.290788595079758,119.89859640784562,76.9687437423004
15.610176770016551,1.7838798802906168,1.7972607779083773,0.736231600759378,15.56800886662677,0.4510005492505116,10.974734504008666,121.23274248606933,12.34342039830517,2.3172519756053407,122.14850684069097,78.07867465044167
15.82409245800227,1.7953327009372104,1.8313403915963136,0.7482631243526642,15.782155197579414,0.45393365024436344,10.975179655128159,121.23773442129338,12.492436375119723,2.348616532875963,124.39844466559589,79.19311310287654
16.030927933752537,1.8052854444887938,1.8656218821997754,0.7602572171008317,15.99219821440056,0.4560094285098529,10.975670678075403,121.24269821892219,12.636761960107833,2.3765908955074395,126.64839926920831,80.31062798349527
16.243225620593876,1.816472863208547,1.900098756828811,0.7725100259013393,16.202918952330947,0.46205213037481224,10.976206521969289,121.247758721066,12.782488356111571,2.4112989010705137,128.8983581457287,81.43320852118437
16.453896017745137,1.827243101949101,1.9347689801361412,0.7845434201882009,16.41316343890503,0.4622513799539412,10.976788514177315,121.25284246451805,12.927798561751842,2.4429614982994,131.1483119726181,82.55942402205766
16.661852287128568,1.837378137969312,1.9696297733462416,0.7966797063091582,16.62181104021147,0.4655687907907947,10.977416884968989,121.25789489291135,13.071313831722364,2.4711087416240796,133.39824889786541,83.68818262111398
16.866627167910337,1.8468187461215875,2.0046772098285146,0.8090066852699066,16.82806804496795,0.47093131511507513,10.97809139371384,121.26294440524768,13.21220251196064,2.5004182874580607,135.64815541356802,84.81984405636894
17.06934374338016,1.8558613937536863,2.0399068105616607,0.8215243918289137,17.03209926886484,0.4768029531999253,10.978811793960631,121.26794479159634,13.350806043017656,2.527299339889801,137.89801927097142,85.95347329038165
17.27451974945143,1.865552005789346,2.0753144120099023,0.8338153288908983,17.23624606290832,0.47674437818102305,10.979577703634277,121.27297074239537,13.489971844712272,2.558159945594875,140.1478266455233,87.09025843964614
17.474977941717952,1.8743470656195906,2.1108981351717375,0.8461193747512439,17.438090294133872,0.47862287944773185,10.98039002274163,121.27813900183324,13.626532784895971,2.5964573144741623,142.39756563305855,88.23212495005185
17.680251692887396,1.8843204751603264,2.1466539070243016,0.8584718744259573,17.641189756337553,0.4814681400773149,10.981248847558163,121.28319700715755,13.76494224043563,2.621490998339575,144.64722922816873,89.37449973276136
17.8803479061462,1.8932707557909718,2.1825807748828083,0.8708157105662148,17.84232690325007,0.48372022861893055,10.982154435128905,121.28840055302369,13.900985821848735,2.659214421958451,146.8967999909073,90.52180112845095
18.0786959878169,1.9019201916712876,2.218675166834146,0.8831736878799006,18.04160765511915,0.4861231813526536,10.983107274514623,121.29351966471582,14.035035738022998,2.685842118412533,149.14627093821764,91.6698397407017
18.27570774545893,1.9103372118248896,2.2549336797674187,0.8956088688002565,18.23929094010964,0.489472047684663,10.984106461750343,121.29866603594473,14.167488059727475,2.71715502483342,151.3956264127046,92.82051147847463
18.468707563355565,1.9179424486843324,2.29135319479974,0.9083804244370883,18.434168512001634,0.496892780624538,10.985152206383646,121.3039643361824,14.296896126121283,2.7563448909757517,153.64485503919423,93.97593825871765
18.667224335018545,1.9268525732576032,2.3279296383843757,0.9210240156057198,18.630400948226452,0.4984677561743282,10.98624442704022,121.30916904167124,14.428398815682158,2.7828819722916585,155.89395020343363,95.13163477328037
18.85840617166832,1.934403559197711,2.364662560459692,0.9332993127468082,18.823642330244184,0.4949307505997379,10.987383441650309,121.31441015106088,14.556340666022152,2.8149089386602477,158.1428951304406,96.28985028584428
19.05664525507018,1.9437497899281175,2.4015480776433833,0.9455981807440429,19.018915645312518,0.49585758362204535,10.988568809814751,121.3196665449164,14.687095078174025,2.8466248619716406,160.3916791304946,97.4501229462985
19.252171551343054,1.9528984730365524,2.4385861154296435,0.9581811042951054,19.213847696315497,0.5018730108276794,10.989801911287941,121.32495881545609,14.817349589429796,2.8795666982186683,162.6402891483158,98.61274003333708
19.43473202176392,1.9597239573101366,2.4757747502881102,0.9709594464718386,19.40212556067854,0.5078459846822619,10.99108308495488,121.33022967635459,14.93962762109004,2.909544128144243,164.8887133896351,99.776591576542
19.62341604521498,1.9681911584708023,2.5131073947413824,0.9836584639675853,19.59013746259734,0.5096285309337591,10.992409711820073,121.3355111134514,15.062392363557592,2.9408060667834697,167.136940067634,100.94219304672082
19.809314584359527,1.9763258073490788,2.5505825394648127,0.9962229801608463,19.77662287419662,0.509489663570937,10.99378243542742,121.3407610253698,15.183683891315013,2.9699868620370857,169.38495680131018,102.10871352345933
19.990520518738776,1.983628239832383,2.588197718723677,1.0090406074597893,19.95999797573313,0.5147183879648208,10.995200959965587,121.34608755056071,15.301574165467173,3.0049213099755274,171.63275012746453,103.27805068768373
20.171231427695602,1.990875068200672,2.62594921287382,1.0217623098395772,20.141569980420172,0.5159782146450077,10.996664823032916,121.35143304346202,15.41781077743508,3.03756146461816,173.88031114637852,104.44908909929389
20.35395648283884,1.9985204098483385,2.663834526145365,1.0346146077613967,20.323246862739325,0.5196618309831699,10.998173613566905,121.3568932801374,15.534598393831402,3.075189206521656,176.12762844003737,105.62350785124616
20.538693563081324,2.0066022025423536,2.701852487924043,1.0475728364422803,20.505981790367514,0.5235916054625279,10.999728247174062,121.36218921650227,15.652817835565656,3.09825215050278,178.37469368427992,106.79615520449627
20.7270130882971,2.0155068180147717,2.7400026752147824,1.060393983738498,20.6910365447402,0.5238861873301669,11.00132853956893,121.36753588821716,15.773763806093484,3.130971003236633,180.6214878577739,107.97091705645546
20.904867727309465,2.0223898074062725,2.778285638836678,1.0732050390026568,20.87201819056645,0.5252004020465305,11.002976580755785,121.37292950211373,15.889526131562889,3.1650766407446254,182.8679994996637,109.14766095764696
21.07844523852691,2.0285882672802056,2.8166972934268415,1.0860769031114497,21.04882424743846,0.5278142928726585,11.004670887370594,121.37840603051414,16.000653601950034,3.201353260750617,185.1142186038196,110.32699237689675
21.255291774403304,2.035697441049996,2.855233570560813,1.0987315605316088,21.22517664777115,0.5263985994526693,11.006410202942789,121.38390929890929,16.111893584718928,3.2348951249429736,187.36013671196997,111.50782725952297
21.429349928162992,2.042416565038942,2.8938931841985323,1.1117033988404774,21.39990750607103,0.5322379545408782,11.008194686844945,121.38939362314147,16.221510745817795,3.2655834439305385,189.6057424340397,112.68927750431988
21.6063551469706,2.0498302351419473,2.9326738662202843,1.1246038337525222,21.575301074888557,0.533873179459609,11.010023809387349,121.39488511782271,16.332252419553697,3.2972786409553114,191.8510231114924,113.87178229274369
21.777007270604372,2.055957515088928,2.97157515847357,1.137441002863107,21.74784911237657,0.5345687534565214,11.011898396653123,121.40041755493958,16.439637657720596,3.331020814754517,194.09596648439765,115.05591715400539
21.946047828998417,2.0616760269545034,3.0105941658257507,1.1502091308039846,21.918168283998966,0.5348850070002895,11.013817610684782,121.40592586556477,16.5447192217689,3.3615827029461665,196.34056245163083,116.24044073352019
22.112408697605133,2.0667261687471994,3.049728460260667,1.1630976708788257,22.086032900493592,0.5380469236070592,11.01578059210442,121.41145551072891,16.647277504671365,3.394113306066045,198.58479858003557,117.42615712425396
22.279600703623146,2.071922389064715,3.0889754603267647,1.1761792411012395,22.2530857315287,0.5430521585074138,11.017786779324524,121.41705282132011,16.74933139863424,3.429448117575104,200.82866434566677,118.61388282220274
