coupler,coupler,$D^a [mM]$,$D^a [mM]$,$I_{islet}^a\ [pg/islet]$,$I_{islet}^a\ [pg/islet]$,$\gamma^b$,$\gamma^b$,$I_{cell}^b [pg/islet]$,$I_{cell}^b [pg/islet]$,$G^b [mM]$,$G^b [mM]$
2.696762793639209,1.0730048205154203,0.5037754067016067,0.07108004999444785,2.2566003418178298,0.14294552583602366,11.004381649428979,120.98936543250619,2.594660265080165,6.631858084843786,5.436810191196855,35.35623640343711
2.9783703784341924,0.9652048359494774,0.5093048716225894,0.1001105160734682,2.5156075058621354,0.19700669113197536,11.003550807246938,120.99393716272404,2.9408148685470223,2.142230508226351,7.672414056840353,35.55949572649586
3.2582498947158456,0.925651765543086,0.5164235409611138,0.1229757497351439,2.7765628086635843,0.23797736589766716,11.002273121383041,120.99846585665674,3.211229992157314,1.0554159168040766,9.908316286629997,35.804593640945704
3.536624928470701,0.914542032935534,0.5249910702259513,0.14248775361744873,3.0390802047331817,0.2715316311993887,11.00097383314278,121.0029832556644,3.4578667350579053,0.9147931584605414,12.144659341312945,36.09071090712837
3.8134227318223566,0.9190632056144185,0.534888261317974,0.1598682367575008,3.3028085976839066,0.30027094296160195,10.999690855620429,121.00752877524158,3.6962601407431066,0.9167191470113482,14.381455480935983,36.41700993920175
4.090087610296905,0.9329006689566036,0.5460125236859312,0.17581664414342804,3.5675795456627384,0.32577747294477793,10.998428255319595,121.01212863625217,3.9320815294631757,0.9322744153791479,16.61870366334915,36.7825759249135
4.365623693098314,0.9523242320378469,0.5582752427580999,0.19074796356946977,3.8331445697695017,0.3489957272809748,10.997187449596822,121.01661810382899,4.166335201065522,0.9414960565548606,18.856401105877012,37.185518106720934
4.6396248346427456,0.9749470219837941,0.5715988033043686,0.20488179177766186,4.099241767427884,0.3703452370451642,10.99596946767997,121.02116962623808,4.399038174538873,0.9580683609901578,21.09453838178888,37.62544655273273
4.910768695524894,0.9990674564296593,0.5859146341827,0.2182555938408383,4.365505242371,0.3896514325757214,10.994775625527836,121.02567495041568,4.629270041594282,0.9703287732293387,23.333112014923245,38.1005054391222
5.180565510760061,1.0239848039092672,0.6011614300805377,0.231388071123549,4.631758491625078,0.4088710081335691,10.99360685038846,121.03027243067687,4.857811887166463,0.989334570199957,25.57211449323222,38.61026291885719
5.450484990957193,1.0494847382358374,0.6172839528007898,0.2439415831942105,4.897991382633336,0.4261932292100541,10.992464369744994,121.03485984204224,5.0859269354259595,1.004003856643039,27.81154284859076,39.152748375794445
5.718994796741754,1.0749883385175463,0.6342335991503205,0.25620191211121496,5.164042910793796,0.4428317798332957,10.991349285352044,121.03946510217229,5.312921549542807,1.0200333883028405,30.051389705389738,39.72682620916073
5.9859256179770455,1.1002263054613335,0.6519661222555442,0.2683582260388049,5.429752604919486,0.45950403116208816,10.990262734470889,121.04394897994044,5.5384692182415165,1.028548966481451,32.29164858395234,40.3300286269365
6.251774207456037,1.1251552549532644,0.6704411431128392,0.2801758199504801,5.6950269642984495,0.4748343205158458,10.9892055708915,121.04846178495158,5.762819800525904,1.0449449042260575,34.5323077198118,40.96222821270439
6.51723722810857,1.1498484244351632,0.6896222537907306,0.291853881302875,5.959852494881488,0.4897996003680867,10.988179044565186,121.05300614829709,5.9865360708208755,1.0624613675367223,36.773360492195934,41.622162663078285
6.781154379015788,1.173973071852034,0.7094761688640574,0.3033899851277511,6.224102067179047,0.5042584294397531,10.9871842993889,121.05752678458306,6.208974735229276,1.0769804901384619,39.01479987567291,42.308041653153154
7.044685694621876,1.1977520637776833,0.7299722754833056,0.3147117783547164,6.487778162350878,0.5177360512842453,10.98622226936277,121.0621496208301,6.430754920002073,1.0991877338481029,41.25661667343229,43.01985448744356
7.305347939953208,1.2205834039951482,0.751082658112864,0.3262232453028955,6.750635489588603,0.5324255832793504,10.985294241923839,121.06676607450227,6.650324220536277,1.1156051184851474,43.49880583677441,43.7553220848393
7.565966548398137,1.243166220687647,0.7727807562769158,0.33764329005738186,7.012736757751554,0.5464696369639997,10.984400893561542,121.07131872057977,6.869194782571867,1.1278650870350968,45.741358450613916,44.51264460671847
7.825490231625736,1.2652818537624766,0.7950425696035381,0.3488978465383822,7.274033883353695,0.5594397412129611,10.983543153153732,121.0758440341838,7.087084463448264,1.1421588948556685,47.984262872021645,45.291059363098924
8.08407033723779,1.2870018275935569,0.8178458855836652,0.3598580726273223,7.534499346045777,0.570651231431322,10.982722057844512,121.08037453693608,7.304014717694372,1.158895416715729,50.22750864317641,46.08983851374832
8.341547180898488,1.308319421450111,0.8411701602453832,0.3709458772697069,7.794092956697568,0.5827369364869828,10.981938647222705,121.08491644539976,7.519880336127244,1.1764160059861586,52.47108614677563,46.90801719240578
8.59831246198155,1.329359886602703,0.8649958401801996,0.38193400748956935,8.052818480879068,0.5941200360054075,10.981193876941688,121.08951388664032,7.7349240717012435,1.1972103551196775,54.71498571150005,47.745140781153474
8.85223279776983,1.3496112475087383,0.8893049430625979,0.39280425815376835,8.310466398717836,0.6047170800202845,10.98048881010618,121.09409834367784,7.947725507663563,1.2137138049671599,56.959198985248804,48.5994322130408
9.10254921275191,1.3688979598849857,0.9140803103509825,0.4038514849635846,8.566772730788216,0.6163767921885885,10.979824010748416,121.09863502362307,8.157327344059013,1.227389537662294,59.203715176321566,49.46954251491019
9.352973761968315,1.3881868715582737,0.9393052025989164,0.4148723828314438,8.821871741907671,0.6276009697832681,10.979199856519699,121.10317961129896,8.36604097217787,1.2447641329646308,61.44852235075086,50.35532149993822
9.601719303289428,1.4070611596144358,0.9649643528682645,0.4261752764501062,9.075705915922299,0.6403291309803208,10.978617333690636,121.10782461344142,8.573308966588229,1.2693300548441626,63.693609836511314,51.25718223161062
9.849473494337872,1.4257068704800762,0.9910431076132227,0.43717874735268947,9.328292856225744,0.6505945568750064,10.978077413281426,121.11246119902894,8.779445593478158,1.2867631283000518,65.93897019326687,52.172915103530926
10.09459899761714,1.4437130116171295,1.017528158670757,0.4483392966244968,9.57948475680314,0.6616628085298836,10.977580673526973,121.11704772513933,8.98339910339564,1.3005435802280765,68.18459167517722,53.10121775770398
10.338946440955624,1.461551450461581,1.044406373082893,0.45940353224742025,9.829334298614413,0.6717221336178497,10.977127553895116,121.12169400488439,9.186149553977884,1.3222108988786496,70.43046113848686,54.042918430699075
10.580595165723935,1.478743867325364,1.0716656267177314,0.4707122207770722,10.07769704493694,0.6831059960342617,10.97671903623268,121.12626381780214,9.38664668542333,1.334417355871405,72.67656903434545,54.995451161187745
10.823199713602662,1.4961987016118303,1.099294008949073,0.4816273606071853,10.324809016892686,0.6913806567765219,10.976355304592289,121.13085718104855,9.58713370829355,1.3533612557264378,74.92290086764842,55.95962093911218
11.061665181070566,1.5126087507838248,1.1272810163500253,0.4929826972437414,10.570373082300648,0.7025214189627563,10.976037538377568,121.1355070100126,9.784717348753475,1.375577493018249,77.16944511979818,56.93532741324686
11.299038182245567,1.5286726979982375,1.1556157003215048,0.504335708562386,10.814427316887304,0.713069159749078,10.975766133284196,121.14012411263214,9.980662407586351,1.3912421496536467,79.4161919252947,57.920717057982735
11.5374642603565,1.5448742504948336,1.1842880436161067,0.5156109142974168,11.057220573537052,0.7225925701221615,10.975541422958486,121.14479885684675,10.17685033439193,1.4133926261020935,81.66312770266086,58.91661271674046
11.77317876345478,1.5602368837247287,1.213288893981371,0.5270394080074705,11.298600596142933,0.7327891357734282,10.97536460624542,121.14951111247197,10.37121048825793,1.4347051842737049,83.91024155914783,59.922227064078385
12.008710175286978,1.5753550104380987,1.2426091863308102,0.5382336666383994,11.538683631690219,0.7408972210241117,10.975236130529083,121.15420994587448,10.564891746500507,1.452006232318132,86.1575221028179,60.9363268839759
12.246804834110662,1.5909750887268364,1.272240659687668,0.5495264965485869,11.777848917990923,0.7495060650539727,10.975156600470655,121.15893241791326,10.760161372483708,1.4719479101234747,88.40495559386909,61.959044575530235
12.48005118733272,1.6054012895356322,1.3021756914968137,0.5609077375805109,12.015697093913332,0.7584334972728626,10.975127413636073,121.16357063457617,10.952511622803286,1.4836734340495448,90.65252891741693,62.988297530892694
12.710622461512685,1.619259742604637,1.3324065143533517,0.572483435686747,12.25208628247492,0.7683284014520041,10.97514843964018,121.1681868793996,11.142111620982178,1.4995698679316711,92.90022583026439,64.02466935585704
12.944774307310581,1.6341596644269374,1.362925478228135,0.5840923975036935,12.487514664651826,0.7778879341130452,10.975219979765825,121.17283225235853,11.333391255117022,1.5199479788869268,95.1480323811993,65.06859918970046
13.172971321735531,1.6478878218726432,1.3937259508820716,0.5957363175047682,12.721477174200118,0.787167255807047,10.975343514000997,121.17751441250671,11.521004904992878,1.5414993044709642,97.39593514986336,66.11986208043014
13.397836786229163,1.660998394629116,1.424800976383267,0.6071093156941632,12.95378178358078,0.7940644890266891,10.975518957595341,121.18216518872279,11.705185343278572,1.5575886053170038,99.64392202813178,67.17704026741833
13.621111724991351,1.6738095242791684,1.4561438115197234,0.6184561114396557,13.184429727029055,0.8006780834115484,10.975746001931839,121.18690657217547,11.887221291079186,1.5831279853285278,101.89197845198214,68.24179304435292
13.849976819008589,1.6879210419218391,1.4877478388079908,0.6301287550183418,13.41414057277143,0.8095116645585029,10.976025212672539,121.19162950245374,12.072526031988673,1.6006304437972307,104.14009396545589,69.31205622781061
14.078546037431806,1.7018490925060212,1.5196073318074923,0.641689459910154,13.642973819747567,0.817062863267948,10.97635802347213,121.19634881567367,12.258603454916738,1.6187997287812994,106.38825249299407,70.38779590536582
14.303984489757568,1.7148647064564704,1.5517170746461488,0.6532214593994321,13.870699340943247,0.8241318444413591,10.976745513849892,121.20110961011513,12.442720525548793,1.6408386886642474,108.63643885962665,71.46949206864583
14.520847270265222,1.7257810358967813,1.5840717421961017,0.6649141185623006,14.096565760672092,0.8321368947751385,10.977188089163974,121.205795473664,12.62024608370848,1.6536061305173537,110.88463989458978,72.55497131187667
14.742340911179781,1.7377825557943318,1.6166653235559352,0.6765764047321743,14.32121781539172,0.8395244641771082,10.977684217388742,121.21053312354881,12.799035543808714,1.6759240131380913,113.13283938728273,73.64611293266775
14.962425416335464,1.7495980456417293,1.6494927943567745,0.6882443339102815,14.54463178711012,0.8466469653299856,10.97823542135302,121.21534623918394,12.977217730367556,1.7011751686914187,115.38102406449616,74.74308725742583
15.18084729788825,1.7612851069925843,1.6825492604984902,0.6999612468887231,14.766761160921305,0.8538483299698308,10.97884240525309,121.22008746256681,13.154054030077532,1.7144808752395784,117.62918149679899,75.84320390268216
15.394530809018761,1.7722223157923407,1.7158299289876595,0.7116771809875394,14.987256698776037,0.86073706883087,10.979505026945844,121.22493226311795,13.32717000041157,1.7413835510789732,119.8772939722985,76.94923185698754
15.610176770016551,1.7838798802906168,1.7493298480985686,0.7234344086678932,15.206474259495735,0.8676590498709338,10.98022341739852,121.22972186454555,13.500544107053429,1.7562048885963366,122.1253508348018,78.05828294720627
15.82409245800227,1.7953327009372104,1.7830445616855286,0.7354145725669659,15.42436503758654,0.8759207982367375,10.980997884878889,121.23459062017898,13.672785138711333,1.7812583261050503,124.37333454377949,79.17247143436998
16.030927933752537,1.8052854444887938,1.8169696414261125,0.7472458848893784,15.640350425150245,0.882551989430278,10.98182921425905,121.23948637941605,13.839730982435867,1.8028949161382346,126.62123275920749,80.29072876318726
16.243225620593876,1.816472863208547,1.8511004133615643,0.7589839630377962,15.855163706466556,0.8882341272196397,10.982716231490485,121.2444120757873,14.008912881603464,1.8244032938554593,128.869032131508,81.41294389557319
16.453896017745137,1.827243101949101,1.885433005692903,0.7709477848928051,16.068756060674787,0.8954729373126004,10.983660358469933,121.24934272169698,14.17762772156857,1.8439278466958235,131.11671767570078,82.53852947127918
16.661852287128568,1.837378137969312,1.9199634898104705,0.7830533928667119,16.28097532596439,0.9033593277803466,10.984662040602416,121.25416716865315,14.34430399374105,1.8539581369375893,133.36427387036383,83.66541709959262
16.866627167910337,1.8468187461215875,1.9546879665576853,0.794793327910085,16.491637857165188,0.908008260551741,10.985720845637843,121.25897850181993,14.508143345126882,1.8709443167215263,135.61168149113655,84.79509694076926
17.06934374338016,1.8558613937536863,1.9896026808419265,0.8066963397655923,16.700690287631005,0.9139102630785448,10.986836770782247,121.26387602395083,14.66969269956462,1.8969198112673014,137.8589250240475,85.9291696912298
17.27451974945143,1.865552005789346,2.0247037232038565,0.8188633288392706,16.908537019509822,0.9215811576858536,10.988010067492723,121.26876109179511,14.832278741290793,1.9153618183712107,140.1059924159199,87.06577714525544
17.474977941717952,1.8743470656195906,2.0599876293563284,0.8310484760664532,17.114824526943266,0.9288582608983811,10.98924139502924,121.27375986258036,14.99187556328252,1.9438585441900582,142.35286702774465,88.20701264916303
17.680251692887396,1.8843204751603264,2.095450831518974,0.8431709232846819,17.32018782524392,0.9351992752541394,10.990530785406008,121.27872863268605,15.15394897479564,1.9611203870700635,144.59953774884343,89.3502237642959
17.8803479061462,1.8932707557909718,2.1310904317651875,0.8554498553948056,17.52419913886115,0.9424106127339902,10.991879234323278,121.28368455837153,15.313143689418212,1.978929926239407,146.84598677419126,90.4956074821571
18.0786959878169,1.9019201916712876,2.1669031642959453,0.8677631772320699,17.726816758979112,0.9494101502832022,10.993286349927075,121.28867271727741,15.470253955805674,2.00056947587391,149.09219812974334,91.64386063681772
18.27570774545893,1.9103372118248896,2.202885868086014,0.8798273633171018,17.928044287953526,0.9540923514021831,10.994752160855569,121.29367503994207,15.625806506955996,2.0210211973273555,151.3381573613733,92.7945614412565
18.468707563355565,1.9179424486843324,2.2390355617390014,0.8921281194764371,18.127617166843265,0.9605301206988276,10.996276626712643,121.29856058922533,15.7780866259709,2.030289357985012,153.58384919539094,93.94528797261891
18.667224335018545,1.9268525732576032,2.2753489481983706,0.9045670354159063,18.326250857207924,0.9676520195019844,10.997858559829183,121.30355059394167,15.933250325964764,2.0572549986633475,155.8292541243136,95.0999083926355
18.85840617166832,1.934403559197711,2.3118234453722835,0.9167541431961755,18.52330407453701,0.972372458040565,10.99950047628954,121.30845796512077,16.084148352732882,2.0700482737983577,158.07435927167535,96.25498061590957
19.05664525507018,1.9437497899281175,2.3484561513760127,0.9290897605320927,18.71963849104941,0.9781554492625616,11.001200627884828,121.3135109034709,16.238710611360148,2.1008483683309014,160.31914636678994,97.4145197083362
19.252171551343054,1.9528984730365524,2.3852447753888555,0.941666555667012,18.915053187403828,0.98550996900192,11.002961879014038,121.31842621796977,16.39247729885392,2.1094045703093274,162.56360359862447,98.57334643742058
19.43473202176392,1.9597239573101366,2.4221869035973214,0.9540737953498699,19.108342235907912,0.9910140348602016,11.00478338461835,121.32349803394135,16.536933497758582,2.140886344632269,164.80770937912166,99.73669061332397
19.62341604521498,1.9681911584708023,2.4592793839401565,0.9664520592669672,19.300328797195107,0.9960647732740946,11.00666320649907,121.32857255699896,16.682887570234016,2.161246721347058,167.05145541764796,100.90169477176366
19.809314584359527,1.9763258073490788,2.496519718610216,0.9791128288963223,19.490863085258752,1.0031222198085037,11.008601881563663,121.33371486342854,16.82734583481215,2.186176883271695,169.29482539184391,102.06946324592013
19.990520518738776,1.983628239832383,2.533905260555912,0.9917731674834029,19.67962008016184,1.009645276385529,11.010599569650367,121.33881002956159,16.96807538671419,2.2018533688446507,171.53780605085194,103.23784478225878
20.171231427695602,1.990875068200672,2.571433277858887,1.0043792423159175,19.866726716514677,1.0153109950661034,11.012654785532504,121.34396733278115,17.107344861608,2.225859570237511,173.78038054704666,104.40876406521147
20.35395648283884,1.9985204098483385,2.6091012124088593,1.016926342774433,20.052548188716173,1.0202299449247243,11.014767855871469,121.34901355327732,17.24759147549048,2.2360476359272057,176.02253575250506,105.5790114773645
20.538693563081324,2.0066022025423536,2.6469068292644806,1.0294667708786163,20.237413034774363,1.0249316545137548,11.016938913962804,121.35423420499366,17.38954509468749,2.2690466350229928,178.26425159536302,106.7537308669712
20.7270130882971,2.0155068180147717,2.684848164266441,1.0418103478453635,20.421774093527347,1.027974968151986,11.019170368555933,121.35939182127538,17.534524214453995,2.2842182351446194,180.50551806762815,107.9285203523266
20.904867727309465,2.0223898074062725,2.7229236752609722,1.0545875500560502,20.60463400511071,1.0345412857226508,11.021463020006195,121.36462384209904,17.673091399483383,2.309403685919264,182.7463155388832,109.10583804756055
21.07844523852691,2.0285882672802056,2.7611309477942996,1.0669793542374921,20.7857148591429,1.0376219435340301,11.023815221502446,121.36985189202369,17.806747103342786,2.328835004277782,184.98663179017603,110.28419629016481
21.255291774403304,2.035697441049996,2.799467674281914,1.0795407058138748,20.96552007785067,1.0421552896925916,11.026225039735436,121.37501712033936,17.94122392591089,2.3427785376943615,187.22645183466375,111.46247470600349
21.429349928162992,2.042416565038942,2.8379317756625824,1.0924561788075509,21.143897849600762,1.0493109686001196,11.028692953521386,121.38026815794446,18.074001660570502,2.368689682250043,189.46575749851763,112.64335409482928
21.6063551469706,2.0498302351419473,2.8765210728743114,1.1052418898016765,21.321285435464233,1.0548276241480616,11.03121933969669,121.38556835914893,18.208339308854192,2.39259481795037,191.7045365627855,113.82610661168192
21.777007270604372,2.055957515088928,2.9152338819694705,1.117817928161088,21.49714573426172,1.0583758132139645,11.033805198967457,121.39085467800598,18.338704602327198,2.4111426744548727,193.94277457147837,115.0095242478341
21.946047828998417,2.0616760269545034,2.9540681925136596,1.1309892917610498,21.671469431836158,1.0666073931077054,11.036448929808103,121.39615293102204,18.46675713104196,2.4313190060144545,196.18045596033335,116.19404419956814
22.112408697605133,2.0667261687471994,2.993021807342302,1.1440341071534221,21.844142602290958,1.0730064935392842,11.039150021970272,121.40153971938933,18.59224728262052,2.457967209167619,198.41756617464125,117.38103455411235
22.279600703623146,2.071922389064715,3.0320927112479694,1.156832493373271,22.015412795823067,1.0769685542722875,11.041908116661943,121.40683357743274,18.717557952506468,2.4701742235190975,200.6540935859084,118.5671061876221
