coupler,coupler,$D^a [mM]$,$D^a [mM]$,$I_{islet}^a\ [pg/islet]$,$I_{islet}^a\ [pg/islet]$,$\gamma^b$,$\gamma^b$,$I_{cell}^b [pg/islet]$,$I_{cell}^b [pg/islet]$,$G^b [mM]$,$G^b [mM]$
2.696762793639209,1.0730048205154203,0.5037754067016067,0.07059320740109053,2.501135037164204,0.14105856845355336,11.004381649428979,120.98941130064281,2.424489385448396,17.65052855905006,5.436810191196855,35.35628206485176
2.9783703784341924,0.9652048359494774,0.510830659448402,0.10049915854910474,2.8705118489451706,0.16906787163287632,11.006730842753313,120.99389126560884,2.7420856480894145,14.279327438947295,7.672462754999287,35.559615763298474
3.2582498947158456,0.925651765543086,0.5199183263175655,0.12296645278943281,3.186111042625271,0.18106295140689954,11.007816144498065,120.9984430360663,2.9738685947668273,11.708585392286563,9.907543430686928,35.80514276045166
3.536624928470701,0.914542032935534,0.5305484602722572,0.1428265592836331,3.4792732511414215,0.19389512773803416,11.008120661834255,121.00301774202656,3.136723912000889,9.796090192076829,12.1424262477085,36.09195392016341
3.8134227318223566,0.9190632056144185,0.5424796241131844,0.16031385775424095,3.762496817507781,0.2019562742353434,11.007946663768962,121.00757201119131,3.2441310155554675,8.421409495179788,14.377345793996938,36.418935951243625
4.090087610296905,0.9329006689566036,0.5555683589627733,0.1764612030101602,4.041650376166217,0.21037051374101529,11.007482237648219,121.01201655565015,3.3071531536406837,7.476401519905106,16.612448242725804,36.78458855433072
4.365623693098314,0.9523242320378469,0.56971547716239,0.19138063092015406,4.318485566065647,0.21685157645533987,11.006843600072898,121.01652354028708,3.3344360538758337,6.862482600246365,18.84782178583555,37.188448259785396
4.6396248346427456,0.9749470219837941,0.5848425375152146,0.20560700357236814,4.593460482778028,0.22441031799505107,11.006102164159529,121.02098872857249,3.3328116238699295,6.489265906156442,21.083526525180787,37.6287680355882
4.910768695524894,0.9990674564296593,0.60088234624709,0.21947110140091028,4.865965916542336,0.23318943970218192,11.005301184253767,121.02549819071662,3.3074785956414416,6.282058050925098,23.319597279885784,38.10472899152606
5.180565510760061,1.0239848039092672,0.6177740556449862,0.23251468623454294,5.136665140395053,0.23765751938852317,11.004466644139029,121.02997059643889,3.262896650878247,6.182604548248693,25.55605865479447,38.61450692710419
5.450484990957193,1.0494847382358374,0.63546656233666,0.245232919869972,5.406705936416984,0.24413804891689544,11.003613831126131,121.03450167943483,3.2029265359742567,6.150929581690447,27.792923944070935,39.15740145450818
5.718994796741754,1.0749883385175463,0.6539165895810584,0.257847693789301,5.675628675264306,0.25215640814932133,11.002751737833023,121.03906344922997,3.1303498647466768,6.160019963787211,30.030204643961042,39.731895977802026
5.9859256179770455,1.1002263054613335,0.6730840663658455,0.27020181977223073,5.943148460122757,0.25855574410355264,11.001885496778414,121.04358055279582,3.04735763874487,6.1928085368156,32.267907976638526,40.3360476466383
6.251774207456037,1.1251552549532644,0.6929324280208675,0.2823344975565672,6.209449837799184,0.26448235604099085,11.001017973409034,121.0481585892711,2.95580174101633,6.240160337357874,34.50603643991053,40.96939610234211
6.51723722810857,1.1498484244351632,0.7134287988737924,0.29465338261386026,6.475025064544752,0.2737784943350467,11.000150915351696,121.05256706093684,2.8573029142571613,6.295164823347586,36.74459503637627,41.62857306104574
6.781154379015788,1.173973071852034,0.7345439469063422,0.30648202410527525,6.739375326083973,0.27677069182642994,10.99928525055293,121.05713430538547,2.7529255099361762,6.356913872087367,38.98357950197533,42.31530829525691
7.044685694621876,1.1977520637776833,0.7562508715927834,0.31835565793089926,7.002997350646183,0.2835585261094469,10.998421920463443,121.06171549797064,2.643753164447844,6.4228267195603985,41.222996906377375,43.027021843332946
7.305347939953208,1.2205834039951482,0.7785248942527687,0.33010934695187555,7.264600307447836,0.2890149124742742,10.99756160902325,121.06633721267461,2.530155889427988,6.49248268082125,43.462848531547934,43.76279045171588
7.565966548398137,1.243166220687647,0.8013410367711913,0.341869096673621,7.525363397086039,0.2952858655676627,10.996705015422776,121.0708825405549,2.4129947333130985,6.56523369880327,45.70313630066812,44.5202172937197
7.825490231625736,1.2652818537624766,0.824678383563878,0.3533752460400364,7.7851278516463935,0.2986153238688695,10.995852843509056,121.07548561270634,2.2927482078957837,6.641929981477832,47.943857493344694,45.29963207250078
8.08407033723779,1.2870018275935569,0.8485174817906227,0.36475787687371974,8.043921178672463,0.3025487069158061,10.99500600376632,121.08003145919665,2.169829485443188,6.722194573054632,50.1850139349699,46.09867745048321
8.341547180898488,1.308319421450111,0.8728400077379774,0.3761669486832527,8.301658829441294,0.30804180151433513,10.99416541296523,121.08467642802476,2.044537099165609,6.806899362217199,52.426602887921035,46.91814639749037
8.59831246198155,1.329359886602703,0.897628648148384,0.38766263916047305,8.558542262064293,0.31433987054281576,10.993332191952504,121.08939564153427,1.917188310122583,6.89593459959106,54.668626953847706,47.7568069738578
8.85223279776983,1.3496112475087383,0.9228676115744747,0.39901239011871364,8.813372265780345,0.3178962027439152,10.992507501272485,121.09401752215118,1.7876101550646126,6.988834235522168,56.91108745522797,48.61163571939017
9.10254921275191,1.3688979598849857,0.948540293291444,0.4104166666954519,9.065213911002502,0.32318439192878307,10.991692465962842,121.09859531033277,1.655512418190483,7.086036416284416,59.15397918969393,49.48239302697101
9.352973761968315,1.3881868715582737,0.9746293391508516,0.42174224619778883,9.315920708002523,0.32697442212664385,10.990888320142403,121.10325017501022,1.5214055163960438,7.187910944565688,61.39729865454137,50.3698009136901
9.601719303289428,1.4070611596144358,1.0011216128186788,0.4330824829677434,9.565161962760612,0.33150956976758966,10.990096430527046,121.10785342784354,1.3853404749534093,7.2940035619224,63.64104628376663,51.271397196423635
9.849473494337872,1.4257068704800762,1.028004088497255,0.44457047504924657,9.813218175666407,0.3377211734917918,10.989318145788275,121.11246502723093,1.2474956244695932,7.404465946196625,65.8852174365893,52.18723058382411
10.09459899761714,1.4437130116171295,1.0552648480515927,0.4559168454971035,10.05921935220249,0.3404798250145761,10.988554892479442,121.11710558236332,1.1076863222697284,7.519227158918213,68.12980921659619,53.11688347655281
10.338946440955624,1.461551450461581,1.0828915954916738,0.46762796465381823,10.303927935427055,0.3489963337039809,10.987808133941144,121.1217970417223,0.9661350747919641,7.638180503473594,70.37481911107898,54.06000578826459
10.580595165723935,1.478743867325364,1.1108733442088123,0.4792222673285105,10.54649680876173,0.35228066130617636,10.9870793732116,121.12646863231386,0.8226358400279423,7.761070889716408,72.62024498451501,55.014985842756126
10.823199713602662,1.4961987016118303,1.1391990084666759,0.4907065816047552,10.788779857568443,0.3546394805422039,10.986370116239414,121.13105362957263,0.6777547623205464,7.887732101835497,74.86608172301203,55.98027972772771
11.061665181070566,1.5126087507838248,1.1678604097978678,0.5021509099578635,11.028461829060689,0.35762943552235343,10.98568190028891,121.13568087437221,0.530925949846278,8.018216937140691,77.11232127435505,56.95719041163877
11.299038182245567,1.5286726979982375,1.1968465670070145,0.5134593856829708,11.2664447221905,0.35929392411731204,10.985016314545646,121.14033919311284,0.3823062909505097,8.152312157055658,79.3589598974213,57.94504094000523
11.5374642603565,1.5448742504948336,1.226148317073239,0.5248880753497379,11.50437678070739,0.3640617867321437,10.984374964260496,121.14496105561963,0.23245053106438718,8.289817402988543,81.6059930510819,58.942344595056255
11.77317876345478,1.5602368837247287,1.255758862476796,0.5364038155608651,11.740658684168011,0.36886120061997957,10.98375947366003,121.14948003894004,0.08104968871521123,8.43059597871719,83.85341306775808,59.947642404991015
12.008710175286978,1.5753550104380987,1.285669799108291,0.5480465980492831,11.976167899323627,0.37417110264305276,10.9831714828033,121.15397305083842,-0.07163746037349483,8.574544925808372,86.10120955854654,60.961663798822414
12.246804834110662,1.5909750887268364,1.3158741653314792,0.5595713259858325,12.212903328472748,0.37616729384761055,10.982612663065083,121.1585310779579,-0.22485426858838764,8.722320158989994,88.34937433619052,61.98539719621242
12.48005118733272,1.6054012895356322,1.346367853373522,0.5713974233555887,12.447217609034851,0.383373531429597,10.982084862305783,121.16308082925424,-0.3794774491871067,8.87437273464552,90.59790189936757,63.01733049239191
12.710622461512685,1.619259742604637,1.3771422369463835,0.5830720221445151,12.678955945186317,0.3851300948111402,10.98159007972572,121.1675415253067,-0.5357735366706038,9.029976000987066,92.84678380098194,64.0558464637324
12.944774307310581,1.6341596644269374,1.4081892725953367,0.5947467728165398,12.911809761077166,0.3879970722823849,10.981130219530314,121.17198209380855,-0.6927043431205675,9.188673905151338,95.09600811079144,65.10169430798302
13.172971321735531,1.6478878218726432,1.4395052544714417,0.6064670653199077,13.141534542199224,0.39165115888745855,10.980707129463553,121.17644304006495,-0.8513459850801155,9.350140348204794,97.34556466061622,66.15520064003182
13.397836786229163,1.660998394629116,1.4710818253515754,0.6183649855284296,13.368006514385343,0.3972454042890841,10.980322652147152,121.1808885634538,-1.012034350380418,9.514090787091387,99.59544450324029,67.21549878847469
13.621111724991351,1.6738095242791684,1.502910806768341,0.6303523119667245,13.592220947612077,0.4018713276078781,10.97997862228658,121.18520015581852,-1.1746896358963568,9.68020372303367,101.84563694894314,68.28040594502298
13.849976819008589,1.6879210419218391,1.5349855332751758,0.6422539728302075,13.818884429521859,0.40379965075425805,10.979676849441603,121.18954099986016,-1.3378114922816167,9.848539847995719,104.09612651541829,69.35231208189833
14.078546037431806,1.7018490925060212,1.5673046874580905,0.6542902632287269,14.046347996685654,0.4084350330116687,10.979419160052203,121.19381155465055,-1.50137631619873,10.018786730363924,106.34690269641578,70.42934593594305
14.303984489757568,1.7148647064564704,1.5998650474357419,0.6662093214912396,14.272251239512116,0.40986829632059535,10.979207338532433,121.19812682461107,-1.665931833384093,10.191022657636186,108.59795081987977,71.51316680164798
14.520847270265222,1.7257810358967813,1.6326612176490016,0.6780030960484338,14.492383011616766,0.41055609968636425,10.979043236351572,121.2023494701046,-1.833004702202743,10.364882564233481,110.8492600992322,72.60128830177604
14.742340911179781,1.7377825557943318,1.665683625440579,0.6898415335509864,14.712982835248113,0.4134797246715915,10.978928715805523,121.20661345158497,-2.001174568227725,10.540577313565528,113.10081463120878,73.69574145842121
14.962425416335464,1.7495980456417293,1.6989292636862956,0.7016930380226766,14.932922698091716,0.416280775762929,10.978865676675923,121.21082162757551,-2.1705126000451855,10.71779173608704,115.35260247811675,74.79471151875322
15.18084729788825,1.7612851069925843,1.7323941579670645,0.7137707938840822,15.151599352713674,0.422207876882927,10.978855982189998,121.21506567639844,-2.3411260141583625,10.89668244853371,117.60460762493312,75.89956235262673
15.394530809018761,1.7722223157923407,1.766073783452157,0.7257470275421307,15.366926180198789,0.42376717747687964,10.978901565307751,121.2190793564593,-2.513715178851271,11.076533822919908,119.85681699588895,77.00563468117272
15.610176770016551,1.7838798802906168,1.799961957091,0.7375719327598397,15.58208895707503,0.4237637256256986,10.979004260268994,121.2231396472616,-2.6874997765989974,11.25808830881507,122.1092073507607,78.11748468807787
15.82409245800227,1.7953327009372104,1.834055659652222,0.7497214667638586,15.796146430075169,0.4306378714380734,10.979166083969176,121.2271345593201,-2.86259328466258,11.44088154608133,124.36176493763924,79.23305460652614
16.030927933752537,1.8052854444887938,1.8683508589747362,0.7615502474651886,16.005512362811714,0.4288705767065099,10.979388968087733,121.23117537466696,-3.040156002884032,11.625176478182961,126.61447123624384,80.35411366271815
16.243225620593876,1.816472863208547,1.902840727881994,0.7737422827404032,16.216277501080185,0.43598379029256956,10.97967503243126,121.23514417722099,-3.2186070379102603,11.810527523554905,128.86731171421707,81.47850832659645
16.453896017745137,1.827243101949101,1.9375237908679992,0.7858959789658415,16.426624822895974,0.43847359313711043,10.98002620821353,121.23908744206686,-3.3980990788550116,11.997077903283074,131.1202664617449,82.60692329484482
16.661852287128568,1.837378137969312,1.9723972887150012,0.7979598051520315,16.635175278875977,0.4393955529596895,10.980444497894496,121.24287630522412,-3.5789709520176984,12.184376822803797,133.37331674434245,83.73701796412374
16.866627167910337,1.8468187461215875,2.007457237690687,0.8101312646157621,16.841096902731806,0.44304168969755103,10.980931840720586,121.2465574216872,-3.761586516338866,12.37262819218024,135.6264386754483,84.86951132376267
17.06934374338016,1.8558613937536863,2.0426989425322972,0.8222948612678557,17.044730910565704,0.445318821911887,10.981490285368636,121.25036874386021,-3.94601141725434,12.562577997706402,137.8796096816659,86.00845906739599
17.27451974945143,1.865552005789346,2.0781182405771688,0.8346125225028184,17.24892441695556,0.4498434353612218,10.982122155372053,121.25393687598729,-4.131393840245437,12.75269908742982,140.13281523622572,87.14723092454467
17.474977941717952,1.8743470656195906,2.1137134510208853,0.8468060694558549,17.450510083232075,0.4504333038172571,10.982829264714383,121.25762024138224,-4.318487278535031,12.94446243365543,142.38602640852332,88.2920463043153
17.680251692887396,1.8843204751603264,2.149480381514877,0.8592855353527484,17.653940864373,0.45670787333352136,10.983613979071379,121.26116340677272,-4.505986845411826,13.13667832444412,144.63922696746886,89.43832018856361
17.8803479061462,1.8932707557909718,2.185418480366934,0.8716396024908444,17.855002366006374,0.4575499594790078,10.984478194615804,121.26465888543625,-4.694846695114393,13.329805561764703,146.8923904262483,90.5876189016845
18.0786959878169,1.9019201916712876,2.2215239405049942,0.8840293764291529,18.054066284559667,0.4599679647977972,10.985424078069627,121.26805676503399,-4.885143338993657,13.523600745580321,149.145493356511,91.73899319674983
18.27570774545893,1.9103372118248896,2.257793218304869,0.896422967512348,18.2515284945257,0.4621076560110054,10.98645374912303,121.27138247929065,-5.076854818034917,13.718178608296949,151.39850999042392,92.8928382303639
18.468707563355565,1.9179424486843324,2.294223225035239,0.9090155408931104,18.445942022372037,0.4672496251251205,10.987569391960278,121.27464284396235,-5.270497791294474,13.913530310473481,153.65141486562788,94.04922059682112
18.667224335018545,1.9268525732576032,2.3308097260887735,0.9216129672871188,18.64244556380436,0.46981215505344553,10.988773285993375,121.2778151395052,-5.46457892091712,14.10952505506518,155.90418238006532,95.2076868848872
18.85840617166832,1.934403559197711,2.3675527907325886,0.9343912704563241,18.835383422207087,0.4747525367149768,10.990067510399967,121.28086773513225,-5.660473027615808,14.306019782842165,158.15678496658802,96.3676234859075
19.05664525507018,1.9437497899281175,2.4044479313888587,0.9468343334970086,19.031128726899624,0.4718885932097643,10.99145429348573,121.28375094776432,-5.856400570773985,14.50282859909759,160.40919378586113,97.52810680162287
19.252171551343054,1.9528984730365524,2.441495930601377,0.9593079764205568,19.226368471514434,0.47351373464996954,10.99293558660429,121.28668098348145,-6.052890924445819,14.70095785964026,162.66137712076306,98.69298111786993
19.43473202176392,1.9597239573101366,2.4786947466782294,0.9721863862111455,19.413625847548246,0.4818302081009627,10.994513770216145,121.28946281892043,-6.2524170860415325,14.899265247838487,164.9133107047528,99.8586848232141
19.62341604521498,1.9681911584708023,2.5160366539494134,0.9849805882934041,19.601363994646817,0.48340096002906685,10.996191217913292,121.29219767398288,-6.453138743177988,15.09834432509387,167.16496331430972,101.02702666596896
19.809314584359527,1.9763258073490788,2.5535207674256526,0.9977385226681453,19.78762256866321,0.48463419117309015,10.997970278491266,121.29485580047348,-6.655364363105036,15.29797020186043,169.41630613990128,102.1974355221986
19.990520518738776,1.983628239832383,2.5911446317331865,1.0102474147032707,19.970473201479763,0.4823311384959798,10.999853297602385,121.29740501861941,-6.8597211429150775,15.497983966119556,171.6673087719828,103.36930401840942
20.171231427695602,1.990875068200672,2.6289044785662554,1.0229263070711576,20.151663000229746,0.4861403177154556,11.001842690631747,121.29982932592958,-7.0658702668733895,15.698350093490193,173.91793923452497,104.54232733773003
20.35395648283884,1.9985204098483385,2.666797739919275,1.0355645401924045,20.33339659869671,0.48751560415977196,11.003940842929296,121.3021743093315,-7.273037740727887,15.899329770295422,176.16816426068544,105.71732025799218
20.538693563081324,2.0066022025423536,2.7048236594418995,1.048442197300977,20.516554513480514,0.4930466117380056,11.006150134839118,121.30440390252676,-7.480603624484502,16.10068344049908,178.41795134171844,106.8936070374753
20.7270130882971,2.0155068180147717,2.7429820111137815,1.061541910836651,20.702431355137378,0.4990005259421839,11.008472766727209,121.3064764866031,-7.687756767962128,16.30221563804774,180.66726589016616,108.07041358311051
20.904867727309465,2.0223898074062725,2.7812735510524362,1.074316640582495,20.883116602431983,0.4962150516201644,11.010910726268776,121.30857678163702,-7.896656499942765,16.504937246927884,182.91607104614377,109.25109218859599
21.07844523852691,2.0285882672802056,2.819693563738838,1.0868793413173525,21.05915834987536,0.49368001323150806,11.013466800446622,121.31058695356255,-8.107791450456716,16.707974122162522,185.16433668136597,110.43346691103862
21.255291774403304,2.035697441049996,2.8582376762642525,1.0997787837146193,21.235303650144488,0.5001312159697751,11.016143570304848,121.31241986019528,-8.32004225102719,16.910924068685464,187.41202782653272,111.61594208425608
21.429349928162992,2.042416565038942,2.8969047808204778,1.1126755390704168,21.40981728443876,0.5024832636099329,11.018943267408758,121.31420471022305,-8.53372366563417,17.114649722381056,189.6591054033488,112.80088604292658
21.6063551469706,2.0498302351419473,2.935692800732795,1.125582185797758,21.58544625202194,0.5043670181186047,11.021868558251299,121.31573666111,-8.74793906440027,17.317909263550888,191.90553456544876,113.9845353335661
21.777007270604372,2.055957515088928,2.9746015268028714,1.1387068845843134,21.757709270808846,0.5096121804481125,11.024921437259763,121.31719539922281,-8.963829954504035,17.521964113674958,194.15127206780016,115.17020019893891
21.946047828998417,2.0616760269545034,3.013627639680635,1.1514924441972116,21.927658905740827,0.5061933300724211,11.028104675468057,121.31859150658711,-9.181359733920544,17.726702244690717,196.39628104120493,116.35807189053293
22.112408697605133,2.0667261687471994,3.0527687916182913,1.1647641825478294,22.09507497632876,0.5149550666750736,11.031421027029864,121.31984556590903,-9.40071146027185,17.931560762906425,198.6405242998153,117.54668755179497
22.279600703623146,2.071922389064715,3.092022208904382,1.1778446148500326,22.261976507958025,0.5145124160854543,11.03487307811156,121.32097028870554,-9.621328128501773,18.13669317841972,200.88396107777953,118.73629237393287
