coupler,coupler,$D^a [mM]$,$D^a [mM]$,$I_{islet}^a\ [pg/islet]$,$I_{islet}^a\ [pg/islet]$,$\gamma^b$,$\gamma^b$,$I_{cell}^b [pg/islet]$,$I_{cell}^b [pg/islet]$,$G^b [mM]$,$G^b [mM]$
2.696762793639209,1.0730048205154203,0.5037754067016067,0.07087719154050136,2.2076934021315537,0.14280839731393144,11.004381649428979,120.98928185810745,2.4585235615086276,15.44555629439101,5.436810191196855,35.356153205590665
2.9783703784341924,0.9652048359494774,0.5089799696434056,0.10023643241974911,2.415282448171638,0.2059362046611941,11.005862702266313,120.99373113358922,2.795445162570104,10.961658568784364,7.672448663855903,35.55938996211961
3.2582498947158456,0.925651765543086,0.515489120647544,0.12309191856578303,2.6227262800675817,0.2581327401623175,11.00595304556191,120.99826238874964,3.0467706928029656,7.960611877963182,9.907747565419413,35.80478501413525
3.536624928470701,0.914542032935534,0.523197465823614,0.14237038762164508,2.8299876787350513,0.30442731368823933,11.005383807467297,121.0028575403012,3.237741785531398,6.032506075407009,12.143116087070666,36.09153170983484
3.8134227318223566,0.9190632056144185,0.5320152888307348,0.15962904209410994,3.0370324273826554,0.3476803316490998,11.004507182515226,121.00736841108966,3.3859912512707524,4.872716768045445,14.378754679346457,36.41818158017539
4.090087610296905,0.9329006689566036,0.5418646907637594,0.17564452187188107,3.243828972103074,0.3893064504404157,11.003491462324746,121.01183095975762,3.5042882573325187,4.236044665926797,16.61475674016401,36.78369460307527
4.365623693098314,0.9523242320378469,0.5526774795289384,0.19044823512341272,3.450348077225499,0.429005726980439,11.002416314790025,121.01634340593372,3.601269146252889,3.9231248632848654,18.851167171727866,37.18732497962771
4.6396248346427456,0.9749470219837941,0.564394100336358,0.20432444437500188,3.6565624206559733,0.46723684970137785,11.00131893856451,121.02088306423722,3.6828559213900007,3.7882703345910183,21.08801013836637,37.627769960119004
4.910768695524894,0.9990674564296593,0.5769617004698375,0.21767992932252994,3.8624464279273525,0.5048955301547552,11.00021625123918,121.02533966485285,3.752796444867272,3.741173045274667,23.32529712188989,38.10310233094602
5.180565510760061,1.0239848039092672,0.5903327665146207,0.23050940742863504,4.06797615706455,0.5417957636906331,10.99911553657148,121.02984130859632,3.8141668920288794,3.736319209816412,25.563029910437763,38.61276604606294
5.450484990957193,1.0494847382358374,0.6044647884118604,0.24289832528097408,4.273129032342695,0.5780397839258044,10.998019925667904,121.03435452708378,3.8695614237803966,3.750051802263542,27.80121208494529,39.15522594183852
5.718994796741754,1.0749883385175463,0.6193193802464521,0.25495932697095436,4.477883737068623,0.6138395640756035,10.996930617257021,121.03891016128746,3.920336134848185,3.7725020604236157,30.039844417013228,39.72938084913609
5.9859256179770455,1.1002263054613335,0.6348616439645411,0.2667169671948612,4.682220116839744,0.6491716930394228,10.995848039281555,121.04344928655512,3.967389468627516,3.7986578503406228,32.278928112238646,40.33343749400195
6.251774207456037,1.1251552549532644,0.6510598007153021,0.2783050107650836,4.886119044618681,0.6843560809224762,10.994772245991044,121.04793865862864,4.011499325744808,3.8269302239973304,34.51846185233444,40.9657567166798
6.51723722810857,1.1498484244351632,0.6678846420691116,0.2900710689230953,5.089562383829616,0.7203769548514284,10.993703219573945,121.05252900893659,4.05341927614063,3.8590265612062438,36.75844290200621,41.62635978310879
6.781154379015788,1.173973071852034,0.6853089396754513,0.3011151795674553,5.292533016880043,0.7544448254842567,10.992641165736131,121.05705761549568,4.093328809714876,3.8924503756037825,38.99887376790866,42.312476382786436
7.044685694621876,1.1977520637776833,0.7033087142772274,0.3122567189042291,5.495014249812812,0.7890122845404665,10.991586079006083,121.0616751040799,4.13170150393853,3.929724729871913,41.23975096317008,43.02431111577709
7.305347939953208,1.2205834039951482,0.7218608341645449,0.32336897713140794,5.696990459924564,0.8236488034452939,10.990538229350932,121.06631801712274,4.16812399920309,3.9697117369916413,43.4810763085261,43.76004396026854
7.565966548398137,1.243166220687647,0.7409440096962499,0.3342669220802895,5.898446669918485,0.8577492632650928,10.989497748552822,121.07093347773525,4.203154518560041,4.01201904909968,45.72284938348457,44.517942558812315
7.825490231625736,1.2652818537624766,0.7605386610230198,0.3450832171132174,6.099368454772048,0.8916930798490088,10.98846479167696,121.07558472311615,4.236868443200365,4.057793397374679,47.96506765810773,45.297560431932915
8.08407033723779,1.2870018275935569,0.780626391977421,0.35586591455001915,6.299742044880986,0.9256020698306341,10.987439632648602,121.08011907659674,4.2693640206125565,4.105112525163598,50.20773082179949,46.09607669843809
8.341547180898488,1.308319421450111,0.8011899633856956,0.366595370332745,6.499554256210104,0.9593923511011574,10.986422377172858,121.08480703663942,4.300662126974203,4.15781451072786,52.450832933653146,46.91558557216102
8.59831246198155,1.329359886602703,0.822213251987705,0.3773960069485716,6.698792425682768,0.9934277804438925,10.985413511865772,121.08946863744602,4.330895069055259,4.212608875021716,54.69437780696899,47.75298066826775
8.85223279776983,1.3496112475087383,0.8436810007842723,0.38817515186828216,6.897444450762123,1.027403494249862,10.984413226833567,121.09416972615684,4.359515328251291,4.2706476478073,56.93836256954819,48.608120234669684
9.10254921275191,1.3688979598849857,0.8655789545446169,0.3988472614227191,7.0954986528959125,1.0610418101187309,10.983421772834845,121.09891304907568,4.385912034136709,4.331712320772656,59.182786827906966,49.48015201416662
9.352973761968315,1.3881868715582737,0.8878937640402,0.40947856046404596,7.292943744221702,1.0945355380496824,10.982439338578843,121.10363252273996,4.410771206894424,4.3948820323917355,61.427650400437415,50.3673778391641
9.601719303289428,1.4070611596144358,0.9106127645645756,0.4200830486254089,7.489768887637183,1.1279172696060031,10.981466086232103,121.10830211937844,4.4340369257261045,4.46011489833076,63.6729504596442,51.268635247559764
9.849473494337872,1.4257068704800762,0.9337239688320551,0.43065232501638945,7.685963651398197,1.1611524240815596,10.980502173770219,121.11300066219347,4.4558764246176,4.528462277113244,65.91868317872286,52.18420382752506
10.09459899761714,1.4437130116171295,0.9572160308307502,0.4412106705550585,7.881517969770357,1.194307635097371,10.97954790131189,121.11770268137175,4.475915688904934,4.599237212540266,68.16484752949327,53.11301559830686
10.338946440955624,1.461551450461581,0.9810781685227994,0.45186105399364956,8.076422153273597,1.2276882883739844,10.978603464202024,121.12247652105619,4.494448119075969,4.673053277681233,70.41144154407084,54.055335842333314
10.580595165723935,1.478743867325364,1.0053000538318884,0.4625337577497192,8.270666922675446,1.26107501643587,10.977669170941226,121.1272395314622,4.511102966323961,4.748564214855208,72.65846564620733,55.0093624245346
10.823199713602662,1.4961987016118303,1.029871922772145,0.4731186769713992,8.46424327744171,1.294131180499924,10.976745149469934,121.13205662668489,4.526717047963757,4.8266202037716415,74.90591722168028,55.97541142848157
11.061665181070566,1.5126087507838248,1.0547845656692516,0.48371015533312267,8.657142453594133,1.3271384960766104,10.975831721443683,121.1368895436449,4.540347748552449,4.906516342832609,77.15379579178989,56.95235730062975
11.299038182245567,1.5286726979982375,1.080029125470901,0.49428942497321504,8.849356044782326,1.3600376170137403,10.974929038668051,121.14169113350955,4.552249233645853,4.987784315404525,79.40209962520748,57.938964645209126
11.5374642603565,1.5448742504948336,1.1055971610185225,0.5049977776787823,9.040875917300582,1.3932461370545848,10.9740372330416,121.14654383853197,4.563243138429243,5.071449197690582,81.65082517080009,58.9359429248814
11.77317876345478,1.5602368837247287,1.1314804998401087,0.5156801393776791,9.23169431090355,1.4262993325827718,10.973156660795212,121.1513701173457,4.572775315609761,5.156373010368822,83.89997162576765,59.941645962866275
12.008710175286978,1.5753550104380987,1.1576714382390492,0.5262264926180653,9.421803618548438,1.458873131545611,10.972287480370142,121.1562221666,4.581216433492955,5.243239486549959,86.14953539147973,60.95640885514683
12.246804834110662,1.5909750887268364,1.1841626768873539,0.5370906650205933,9.611196395475417,1.4923007508528947,10.971429993980564,121.1610894973564,4.589649972971529,5.331722885182231,88.39951464999467,61.97964170767845
12.48005118733272,1.6054012895356322,1.2109468988783192,0.5476961227934997,9.79986578389071,1.5248902316418802,10.970584585214965,121.16594574815268,4.596610954788048,5.421496226907726,90.64990678615868,63.01052982815332
12.710622461512685,1.619259742604637,1.2380174826539587,0.5583747122081693,9.987804719014093,1.5576132154811049,10.969751448836178,121.1707860713688,4.601725946587976,5.512558440605472,92.9007085384801,64.04861510076177
12.944774307310581,1.6341596644269374,1.2653678430942819,0.5691381157931941,10.175006612204015,1.5905012218639727,10.968930745730177,121.17575906232561,4.6066103329649195,5.606258983278231,95.15191649831831,65.09588024598843
13.172971321735531,1.6478878218726432,1.2929916440625675,0.5798932553746162,10.361465099733323,1.6232846350360626,10.968123001046479,121.18074229917775,4.609534370887559,5.700766959722303,97.40353219490498,66.15003949645768
13.397836786229163,1.660998394629116,1.3208828511124011,0.5906645660786842,10.54717395780608,1.6560344713882116,10.96732832014095,121.18553798307696,4.61007417581277,5.794554415696362,99.6555530373007,67.20760631242165
13.621111724991351,1.6738095242791684,1.3490356389957014,0.6016827298227374,10.732127174502239,1.689407316266313,10.966546551091596,121.19037505214415,4.6084554133121856,5.890585144520916,101.90796928759664,68.27197565925789
13.849976819008589,1.6879210419218391,1.377444253390422,0.6125806661036386,10.916319140931591,1.7223577574571876,10.965777988079935,121.19536115098688,4.606990558269899,5.989121477694709,104.16077952086926,69.34461111381319
14.078546037431806,1.7018490925060212,1.4061033713223878,0.6235508227267317,11.099744117585942,1.75543306768087,10.965023219585419,121.20029029817397,4.605532566376496,6.087650189320915,106.4139855299145,70.42186956013767
14.303984489757568,1.7148647064564704,1.4350077402486932,0.6345240022272369,11.28239671094343,1.788438781415264,10.964282478787936,121.20526686165756,4.603127992304508,6.1875752488319335,108.66758148744702,71.50521470993006
14.520847270265222,1.7257810358967813,1.4641523305617739,0.6456325484820283,11.4642716483213,1.8217453742810494,10.963556100265123,121.21022096744318,4.597476125811227,6.288085287483567,110.92156556248665,72.59324797485196
14.742340911179781,1.7377825557943318,1.4935322073870338,0.6566572526771218,11.645363949239254,1.8547428187649388,10.962844048626721,121.21523990589412,4.590928487537894,6.390026744352776,113.17593389935791,73.68720072941541
14.962425416335464,1.7495980456417293,1.5231427240360063,0.66761911998362,11.825668588047847,1.887493708246943,10.962146691046655,121.22018633248445,4.583319255034439,6.492016599900519,115.43068514578044,74.78455672285644
15.18084729788825,1.7612851069925843,1.5529793724708725,0.6788340057405193,12.005180712090805,1.920868659864072,10.961464167805389,121.22520887585614,4.574456354719587,6.595609614228137,117.68581296876073,75.88761901233335
15.394530809018761,1.7722223157923407,1.5830376181402244,0.6898543135675437,12.183895942987874,1.9536402417051943,10.960796842351556,121.23029964111196,4.563282800954767,6.7002964898219535,119.94131642580032,76.99605798293622
15.610176770016551,1.7838798802906168,1.6133133106632158,0.7010666854483091,12.361809603171423,1.9868665624039794,10.960144895710982,121.23539167879733,4.551068974251393,6.805390963074583,122.19719444960356,78.10855337841419
15.82409245800227,1.7953327009372104,1.6438022233196534,0.7121496736189243,12.53891754662618,2.0196755856246673,10.959508545696735,121.24047976453144,4.537596364098135,6.91102987303204,124.45344317704439,79.22484576950045
16.030927933752537,1.8052854444887938,1.6745004254044034,0.7231950116915115,12.715215453878045,2.0523199803549663,10.95888801291585,121.24562979008473,4.521107140579261,7.017763103385581,126.71005851961672,80.34590407173184
16.243225620593876,1.816472863208547,1.7054040566436015,0.734449797802802,12.890699217561632,2.085463848502171,10.958283425308764,121.25068714770117,4.5041336818248965,7.124260660882075,128.96703918464482,81.46891399773365
16.453896017745137,1.827243101949101,1.7365092475665733,0.74554848062406,13.06536513613537,2.118130803387677,10.95769496820867,121.25573131304634,4.486321835895069,7.23153946840012,131.2243775948882,82.5951123191625
16.661852287128568,1.837378137969312,1.7678124213125557,0.7567834841840055,13.239209245890379,2.1511016489608323,10.957122964202426,121.2608372264359,4.4670978812500834,7.339996550866691,133.48206901364028,83.72566292546789
16.866627167910337,1.8468187461215875,1.7993099609739147,0.768053422194622,13.412228025961667,2.184107774539337,10.956567753921263,121.26593398633504,4.445920174766798,7.448823576776326,135.7401115540415,84.85919658109222
17.06934374338016,1.8558613937536863,1.830998401681427,0.7793273127587255,13.584417977370322,2.217069322432827,10.956029481138103,121.2710991087761,4.42274655320216,7.558613579524432,137.99850079230964,85.99694819921584
17.27451974945143,1.865552005789346,1.8628743878216483,0.7905084990908887,13.75577567378059,2.249736499013878,10.955508400453255,121.27634421411277,4.398902952554636,7.669200202071601,140.25723508745432,87.13900049377764
17.474977941717952,1.8743470656195906,1.8949347010347992,0.8019619358076342,13.926297702360898,2.2830607069344984,10.955004894989543,121.2814837991543,4.373164406162687,7.7792800415373025,142.51631280593574,88.28197164734632
17.680251692887396,1.8843204751603264,1.9271760432166047,0.8132716046039539,14.095981188584119,2.315963205587725,10.954518969985656,121.286692405023,4.347533498890698,7.890463853593893,144.77572577632964,89.42885163611247
17.8803479061462,1.8932707557909718,1.9595953897223808,0.8247796825575565,14.264822885394096,2.349328777799766,10.954051155247726,121.29180829661269,4.320414359099232,8.001438760350805,147.03547159396112,90.5766686629015
18.0786959878169,1.9019201916712876,1.9921896457090043,0.8360607499758508,14.432820062618703,2.382067493006909,10.953601564164273,121.29700001422073,4.291718776104972,8.113546608568068,149.29554229415953,91.7283328457454
18.27570774545893,1.9103372118248896,2.024955980014056,0.8475825935457824,14.599969578441232,2.415376757911448,10.953170569962822,121.30216564284811,4.261508784838952,8.22580665855418,151.555936018005,92.88193365786375
18.468707563355565,1.9179424486843324,2.057891432719771,0.8591071519986094,14.766268965322524,2.4486503245058886,10.95275836752262,121.3073103848803,4.229025177366566,8.338384181529266,153.81664707511663,94.03748435875744
18.667224335018545,1.9268525732576032,2.0909932186477818,0.8707054218005166,14.931715575512499,2.482069054743542,10.952365107601508,121.31247129556976,4.1965953578474,8.451513148409642,156.0776700899005,95.19557428274257
18.85840617166832,1.934403559197711,2.1242585934814997,0.882387785799983,15.096306946594268,2.515659295569644,10.951991237932816,121.31755005583383,4.161993102985434,8.564564760768745,158.33900042809546,96.35435840407172
19.05664525507018,1.9437497899281175,2.157684875128325,0.8941162899871212,15.26004072604701,2.549326550800172,10.951636855956167,121.32280151979153,4.127977848169394,8.679114412650069,160.600630287081,97.51836220093345
19.252171551343054,1.9528984730365524,2.1912694609491155,0.9057352448914807,15.42291461583227,2.5826857205238376,10.95130266470369,121.32800799819667,4.093550433346536,8.793413330278693,162.86256041377783,98.68356579034372
19.43473202176392,1.9597239573101366,2.225009873160161,0.9173906924348932,15.584926198236644,2.616102087845324,10.950988913420588,121.33318460612453,4.054935504565947,8.907872530106285,165.12478363513947,99.85018157503843
19.62341604521498,1.9681911584708023,2.2589036333956756,0.9289091076715722,15.746073345188051,2.64915065096619,10.950695565901697,121.3384594536095,4.015217348816805,9.02320610277943,167.3872942980379,101.02048199355791
19.809314584359527,1.9763258073490788,2.2929483876214363,0.9407003598411656,15.906353767961264,2.6828385152530707,10.950423054164276,121.3437426799816,3.97388243250316,9.13867815837166,169.65009070932865,102.19276547648279
19.990520518738776,1.983628239832383,2.3271416781353764,0.9524441162012864,16.065765833016485,2.716382018947367,10.950171611621045,121.34895596615927,3.9299991874140687,9.25401865753339,171.9131677839905,103.36555355780305
20.171231427695602,1.990875068200672,2.361481224244926,0.9641718705806871,16.224307554773986,2.749860534505492,10.949941326281987,121.35412860423176,3.8841749565908685,9.369593290500552,174.1765177566558,104.53934212020074
20.35395648283884,1.9985204098483385,2.3959647850715555,0.9759685845507543,16.381977072916925,2.7834810643706125,10.949732436798513,121.3593152429562,3.8375878592487425,9.485663820856047,176.44013381376863,105.71508780578962
20.538693563081324,2.0066022025423536,2.430590136849787,0.987755009959042,16.538772729691118,2.817053946443622,10.949545352137648,121.36450377291312,3.791062160220463,9.602045352080001,178.7040107343346,106.89251912938417
20.7270130882971,2.0155068180147717,2.4653551328810863,0.9996484181818492,16.694692832417786,2.8508611186211583,10.949380522361025,121.36969509904488,3.7456461171386763,9.71871353678079,180.96814247593284,108.07160384702289
20.904867727309465,2.0223898074062725,2.5002576309489086,1.0116411765021198,16.849735936615616,2.8848839004166624,10.949238489265554,121.37490171218116,3.6978595055406913,9.835707827061183,183.23252261430025,109.25252075973795
21.07844523852691,2.0285882672802056,2.5352955355192535,1.0235921215989185,17.003900677431375,2.918788312154119,10.949119491386227,121.38015831534936,3.647122689173557,9.953120289483559,185.49714597314596,110.43587048908289
21.255291774403304,2.035697441049996,2.570466846518684,1.0356701968469102,17.157185544725507,2.952974522123697,10.949023754918016,121.38539161237064,3.595293920894619,10.070556105060215,187.76200877316296,111.6202648679978
21.429349928162992,2.042416565038942,2.6057695453055203,1.0475250251735257,17.309589360374957,2.9866212596564927,10.948951580794528,121.39054111540217,3.541856874478981,10.187899372011286,190.02710397914052,112.80455505669205
21.6063551469706,2.0498302351419473,2.6412017759284936,1.0593179482128694,17.4611104875803,3.0201111408019026,10.94890320149716,121.39577422353867,3.488170975295361,10.305952909641004,192.2924223691225,113.99181418259714
21.777007270604372,2.055957515088928,2.6767616628785618,1.0714280422360425,17.611747599206865,3.054326271550701,10.948879171628505,121.40099018564587,3.4323980468907394,10.424070794177961,194.557960473001,115.18013046564653
21.946047828998417,2.0616760269545034,2.712447241996415,1.0833234838107395,17.761500025633723,3.088033894306434,10.948879733798094,121.4062643888826,3.374673932848964,10.542604656909923,196.8237113468349,116.37087725148065
22.112408697605133,2.0667261687471994,2.748256764432881,1.0952326015495881,17.91036633355543,3.121764836196707,10.948905244469643,121.41150423753659,3.314773497695569,10.661117342746612,199.08967082947493,117.56230244069451
22.279600703623146,2.071922389064715,2.7841884395456873,1.107333915770127,18.058345515280962,3.1559285755858344,10.948955939617008,121.41674281838493,3.2535925235715695,10.779846960825262,201.35583124123514,118.75500324588677
22.448667539749295,2.077618775322468,2.82024045282742,1.1192522988044864,18.205436926800758,3.1896688233392725,10.949032196891494,121.42188103254176,3.192071394645609,10.898454440636758,203.62218588590622,119.94711032533512
