coupler,coupler,$D^a [mM]$,$D^a [mM]$,$I_{islet}^a\ [pg/islet]$,$I_{islet}^a\ [pg/islet]$,$\gamma^b$,$\gamma^b$,$I_{cell}^b [pg/islet]$,$I_{cell}^b [pg/islet]$,$G^b [mM]$,$G^b [mM]$
2.696762793639209,1.0730048205154203,0.5037754067016067,0.07088273537951781,2.305507280805614,0.1423143511526144,11.004381649428979,120.98936124837775,2.696762793639209,0.4463239313730428,5.436810191196855,35.35623223816394
2.9783703784341924,0.9652048359494774,0.5096230599592673,0.09988284665660456,2.6061511379666626,0.18874439258961676,11.003035214729607,120.99388243212715,2.9783703784341924,0.5177943146983783,7.672385680663865,35.559267871232336
3.2582498947158456,0.925651765543086,0.5172705667064292,0.12303636906853176,2.9025111908558756,0.22179841217995366,11.0017086568987,120.9984648394062,3.2582498947158456,0.5478740863015429,9.908417440135963,35.804327135431365
3.536624928470701,0.914542032935534,0.5265044701081933,0.14244563162348464,3.195102284080349,0.24577577949952834,11.000403294456191,121.00294218119298,3.536624928470701,0.566475582031983,12.144902854808606,36.09014433790142
3.8134227318223566,0.9190632056144185,0.537156379330554,0.1597616527725694,3.484326542704366,0.26540203219280595,10.999120734166354,121.00750286108173,3.8134227318223566,0.595692384644752,14.381832858081907,36.41631691893572
4.090087610296905,0.9329006689566036,0.5490890679502627,0.17578342332342228,3.7707984843291342,0.2828337046270743,10.997862834017724,121.0120648800846,4.090087610296905,0.6187030768535647,16.61920477473177,36.781538691431024
4.365623693098314,0.9523242320378469,0.5621900856640423,0.19063332600741378,4.054813773720525,0.2977111759567879,10.996631340472959,121.01661044886666,4.365623693098314,0.6396459935702781,18.857012047199532,37.18458127013359
4.6396248346427456,0.9749470219837941,0.5763654283800861,0.2050294716621489,4.336530288797803,0.31289902013079895,10.995427940855734,121.02116188351273,4.6396248346427456,0.6613160213899387,21.095247256336734,37.62433828270166
4.910768695524894,0.9990674564296593,0.5915342504886212,0.21866948588867421,4.615812174975872,0.32599904705574195,10.994254296994768,121.02565072664675,4.910768695524894,0.6770991385050936,23.333903428632766,38.099136121451394
5.180565510760061,1.0239848039092672,0.6076265453884844,0.23163762689128645,4.892854592180811,0.33727448479668926,10.993111782008782,121.03021782480305,5.180565510760061,0.7026998003030805,25.572971017565578,38.608545742807344
5.450484990957193,1.0494847382358374,0.6245815177098848,0.24439004743431542,5.1681092453654855,0.34913478596069913,10.992002148879692,121.03478810084573,5.450484990957193,0.7220470244626891,27.812444775830954,39.1507818271531
5.718994796741754,1.0749883385175463,0.6423462699603988,0.256756258123707,5.441632565809414,0.3599230025950419,10.990927059901878,121.03930640168639,5.718994796741754,0.736445987027468,30.05231583211571,39.72408521217769
5.9859256179770455,1.1002263054613335,0.660874153705663,0.26902675910571117,5.71343703311868,0.37129370569484504,10.989887982024811,121.04379786438415,5.9859256179770455,0.7521748779687051,32.29257327597588,40.327279252709204
6.251774207456037,1.1251552549532644,0.680123085345258,0.2808580333886254,5.983633164898492,0.38054533616264463,10.988886435283348,121.0482967493501,6.251774207456037,0.7702146431631166,34.53320674179122,40.95931395057703
6.51723722810857,1.1498484244351632,0.7000558281724807,0.29273859126263185,6.252449594205245,0.3911798509484457,10.9879240085138,121.05282188853312,6.51723722810857,0.7894764250842389,36.77420652890578,41.61906155107612
6.781154379015788,1.173973071852034,0.7206386197503889,0.30431684427856315,6.519838217413053,0.4001341666693475,10.987002357607707,121.05736442469458,6.781154379015788,0.8076620292774515,39.01556300697848,42.305176365743165
7.044685694621876,1.1977520637776833,0.7418410264508566,0.31601335554935095,6.785993237281218,0.41060024865801537,10.986122898408212,121.06184885879209,7.044685694621876,0.818616800802694,41.25726604787633,43.015666796785645
7.305347939953208,1.2205834039951482,0.7636351869005011,0.32765490065082203,7.050574258668348,0.42067936892457625,10.985287093557417,121.06649408484937,7.305347939953208,0.8492485660121143,43.49930207058787,43.751558184473865
7.565966548398137,1.243166220687647,0.7859950334677706,0.33903671486980835,7.313874662853777,0.4288327144129914,10.984496499062516,121.07095379337036,7.565966548398137,0.8474204892606865,45.74166571581736,44.50804398333252
7.825490231625736,1.2652818537624766,0.8088973219855689,0.35027025419642166,7.575919444439933,0.43631659805330186,10.983752079773694,121.07550920228252,7.825490231625736,0.8716554999875339,47.984337851405144,45.28702284304832
8.08407033723779,1.2870018275935569,0.8323204400076065,0.3615303264100447,7.836759477155283,0.44449645419725087,10.983055784949102,121.07997658954186,8.08407033723779,0.8779188365580762,50.22730953991413,46.085351922778514
8.341547180898488,1.308319421450111,0.8562442795955576,0.37278727672186995,8.09640411962755,0.4527724436198922,10.982408671756275,121.08450735123749,8.341547180898488,0.8986576509750366,52.47056460008025,46.903739945959224
8.59831246198155,1.329359886602703,0.8806502133666072,0.38394747000648227,8.354939682874829,0.46025130492952604,10.98181242775172,121.0890542213592,8.59831246198155,0.9145219584016643,54.71409208793193,47.74065105413203
8.85223279776983,1.3496112475087383,0.9055211051600054,0.39524679741845714,8.612008957192302,0.4689612947826014,10.981268383795395,121.09356588225639,8.85223279776983,0.9249309361517043,56.95787876006216,48.594509708285706
9.10254921275191,1.3688979598849857,0.9308401175949257,0.40651580419673733,8.867174916667864,0.47702704457776857,10.980777401709929,121.09809188060666,9.10254921275191,0.9400196634827664,59.20190971624106,49.46503375710516
9.352973761968315,1.3881868715582737,0.9565909275843296,0.41783135965528406,9.12083068699576,0.4851999277641355,10.980340346577577,121.10266821116981,9.352973761968315,0.958542581324606,61.44617180991918,50.351841201040926
9.601719303289428,1.4070611596144358,0.9827588019834366,0.4289960081679413,9.372933788923547,0.49172399946832457,10.979958813171834,121.10715069685972,9.601719303289428,0.9616616037641353,63.690651970915496,51.2522304631222
9.849473494337872,1.4257068704800762,1.0093299654254224,0.44036636879317903,9.623588040936738,0.5000543867841843,10.97963357088156,121.11163991956958,9.849473494337872,0.9751324948674595,65.93533187545836,52.16676406713603
10.09459899761714,1.4437130116171295,1.036291317868745,0.45158588418641227,9.87254954711534,0.5064921583596219,10.979366101091728,121.11616139718721,10.09459899761714,0.9912079131155053,68.18019649107009,53.09506754054487
10.338946440955624,1.461551450461581,1.0636304195504636,0.4629838470269962,10.119993473635986,0.5144213506349522,10.979157298337668,121.12067457786522,10.338946440955624,1.002576091536392,70.42523173987865,54.0358967285936
10.580595165723935,1.478743867325364,1.0913355131342541,0.4742375480197678,10.365676308982074,0.5204874562686891,10.97900829766877,121.12520480900211,10.580595165723935,1.0165810423974202,72.67042129021138,54.98895928553271
10.823199713602662,1.4961987016118303,1.1193953636975493,0.48567981749084843,10.61013426957652,0.5281592758298564,10.978919910616241,121.1298009457449,10.823199713602662,1.0358725622043436,74.91574993636459,55.95434498789898
11.061665181070566,1.5126087507838248,1.1477998239570297,0.4969983426231245,10.852777821244672,0.5340939594331976,10.97889390704222,121.13435213127569,11.061665181070566,1.042569132388612,77.1612030537799,56.92987451419629
11.299038182245567,1.5286726979982375,1.1765386756160296,0.5085516832755466,11.093744748970494,0.5420057419848981,10.978930295794271,121.13898690407258,11.299038182245567,1.0636481342750277,79.4067628448829,57.91688528084956
11.5374642603565,1.5448742504948336,1.205602145550074,0.5200259524747004,11.33357485360466,0.5483742003623394,10.979030501330271,121.14345703634426,11.5374642603565,1.0557518902407914,81.65241536963731,58.911178033626655
11.77317876345478,1.5602368837247287,1.2349818632064853,0.5316257878491915,11.571947119897231,0.5555284889950722,10.979195430409163,121.14806092793316,11.77317876345478,1.0826917354500705,83.89813665580004,59.916739300867675
12.008710175286978,1.5753550104380987,1.2646692830312531,0.5431313940176461,11.809110765112564,0.5611720920561816,10.979426558944397,121.15258795328543,12.008710175286978,1.0845394272211477,86.14391437824816,60.92991861486401
12.246804834110662,1.5909750887268364,1.2946566976897884,0.5546391096045584,12.045814528828487,0.5666571180813363,10.979724524659105,121.1571943959671,12.246804834110662,1.1049093364911067,88.38972744904459,61.952676541835636
12.48005118733272,1.6054012895356322,1.324937576573575,0.5659976041298291,12.281175342621282,0.5706046584418965,10.980091880075634,121.16178142309319,12.48005118733272,1.113461032112366,90.63555950764567,62.98307653044317
12.710622461512685,1.619259742604637,1.3555046667170245,0.5775390670948263,12.514921476365998,0.5765663939867992,10.980528229032643,121.16634612335102,12.710622461512685,1.1212777909681915,92.88139193877578,64.02068654319713
12.944774307310581,1.6341596644269374,1.3863505038025323,0.5891149937326379,12.748087083455175,0.5824253519251346,10.981034043012187,121.17090022772408,12.944774307310581,1.130272977615286,95.12720553949475,65.0653267124433
13.172971321735531,1.6478878218726432,1.4174692535598297,0.6006929064407596,12.979592506308109,0.5878869291977425,10.981611723662354,121.17538915441386,13.172971321735531,1.1324395845520983,97.3729796782136,66.1157863815381
13.397836786229163,1.660998394629116,1.4488540899183135,0.6121557938305889,13.20909881638363,0.5919451407629571,10.982260525226593,121.1798597380174,13.397836786229163,1.1400322340274551,99.61869374010712,67.1724902649695
13.621111724991351,1.6738095242791684,1.4804981328488793,0.6237054016615061,13.436683161649853,0.5969537083279944,10.982980771106668,121.18441123508936,13.621111724991351,1.1600664760331605,101.86432821955532,68.23673054097826
13.849976819008589,1.6879210419218391,1.5123947452229913,0.635474521570427,13.663843722548336,0.6038167447880375,10.983773498912342,121.18903894909641,13.849976819008589,1.1794293114123524,104.10986672155559,69.3081383918224
14.078546037431806,1.7018490925060212,1.5445391316607129,0.6472507682627382,13.89060211693868,0.6098436656196088,10.984641732182354,121.19356821956694,14.078546037431806,1.1765586011885667,106.35529037937522,70.3835860068469
14.303984489757568,1.7148647064564704,1.5769268138101324,0.6591043147428853,14.116408640053123,0.615990831486987,10.985585997230373,121.1981158592404,14.303984489757568,1.1886056894497594,108.60057479888201,71.46473666505159
14.520847270265222,1.7257810358967813,1.6095528441364877,0.6708302402575125,14.339734726119787,0.6202207886304099,10.98660689406097,121.20265603835298,14.520847270265222,1.1970722437384993,110.84570045024157,72.55091716100694
14.742340911179781,1.7377825557943318,1.6424109628424048,0.682628522085174,14.561998803634197,0.6251015423395703,10.98770256654825,121.20721747037213,14.742340911179781,1.2088986929434054,113.09064819477499,73.64237228275532
14.962425416335464,1.7495980456417293,1.6754964695428498,0.6945385317460631,14.783127933274955,0.6307687126602269,10.988875859999098,121.21179061784781,14.962425416335464,1.2196091681859478,115.33539686352015,74.73872135935355
15.18084729788825,1.7612851069925843,1.7088047460420057,0.706474626715835,15.003013231791556,0.636093127808834,10.990127413417213,121.21637729955886,15.18084729788825,1.2304533984571229,117.57992577552795,75.83978553313979
15.394530809018761,1.7722223157923407,1.7423312689061277,0.7183557981102119,15.220952508505434,0.6403795153256149,10.991457786178216,121.22091187754664,15.394530809018761,1.232295181295213,119.8242142982781,76.94425981883104
15.610176770016551,1.7838798802906168,1.776071009633597,0.7305430234990358,15.437724213581532,0.647524271248318,10.99286611599382,121.22546021636126,15.610176770016551,1.242767219149887,122.06823999620974,78.05307644883328
15.82409245800227,1.7953327009372104,1.8100196997402236,0.7424148684352242,15.653213026933372,0.6503719375582153,10.994354472961277,121.22998384349806,15.82409245800227,1.247980412847153,124.31198136508465,79.16540212399978
16.030927933752537,1.8052854444887938,1.844173380464781,0.7543827343814197,15.866256275679916,0.6544789922232288,10.995923163718544,121.23457993703751,16.030927933752537,1.2664646208190289,126.55541585199535,80.28272956612805
16.243225620593876,1.816472863208547,1.8785269146901555,0.7665263510706241,16.078432772308588,0.6601727229227236,10.997570967534557,121.2390813770735,16.243225620593876,1.2614541087127669,128.79852595552802,81.4020264860447
16.453896017745137,1.827243101949101,1.9130767756723799,0.7785053790203692,16.28958787024021,0.663477951154683,10.999300313764252,121.24358929310989,16.453896017745137,1.2706208184259997,131.04128488339484,82.5248905059219
16.661852287128568,1.837378137969312,1.94781954807695,0.7904395796007571,16.49938029004261,0.6664077860107007,11.00111207086593,121.24811908814547,16.661852287128568,1.281856817141105,133.28367085196078,83.65144182435226
16.866627167910337,1.8468187461215875,1.9827515354263596,0.8025708536158166,16.707443750463426,0.6715152259098351,11.00300628237892,121.25259536419362,16.866627167910337,1.282207271082916,135.5256627742201,84.78023360107596
17.06934374338016,1.8558613937536863,2.017868734372314,0.8148114405749262,16.91371018718928,0.6771309790994755,11.004982366459444,121.25712695300027,17.06934374338016,1.2979208654108465,137.76723687909544,85.9130325845938
17.27451974945143,1.865552005789346,2.0531672608922236,0.827079432132638,17.119028702843934,0.6822328850414017,11.007040963624604,121.26164086503823,17.27451974945143,1.303055469576224,140.00837330333889,87.04843441204913
17.474977941717952,1.8743470656195906,2.0886441144975834,0.8392678220820263,17.322643177583814,0.6859040633636451,11.009183736052364,121.2662126509244,17.474977941717952,1.319141538389527,142.24904805980623,88.18764367527672
17.680251692887396,1.8843204751603264,2.1242957610520534,0.851742251687946,17.525855362880975,0.6923616705579909,11.011410068604164,121.27078958107943,17.680251692887396,1.32741537649778,144.489241451025,89.32961491281327
17.8803479061462,1.8932707557909718,2.160119722073432,0.8639650047994123,17.727708507794887,0.6951260099232129,11.0137227071682,121.27530529531491,17.8803479061462,1.3261207178563454,146.7289294861257,90.47307235404566
18.0786959878169,1.9019201916712876,2.196112997480668,0.8763323312671152,17.92812263034284,0.699539636797036,11.016120145097375,121.27979006314884,18.0786959878169,1.3289114192680438,148.96808779984713,91.61845441669585
18.27570774545893,1.9103372118248896,2.2322724270634353,0.8888101421528615,18.127116587013006,0.7046591728429448,11.018602714524604,121.28426640422562,18.27570774545893,1.3348853343257463,151.20669255778193,92.7660645797538
18.468707563355565,1.9179424486843324,2.268594981112983,0.9011029656160928,18.324170398060232,0.7071759171929667,11.021170870983042,121.2888319012058,18.468707563355565,1.355311492648074,153.44472058862448,93.91753901063443
18.667224335018545,1.9268525732576032,2.3050773924333043,0.9134784654768728,18.5207736347802,0.7107492319288679,11.023824240430258,121.29343126356414,18.667224335018545,1.3673593037122918,155.68215291574597,95.07179371479324
18.85840617166832,1.934403559197711,2.341717555478681,0.9259445480713966,18.715547941159457,0.7150818466882155,11.02656590018887,121.29797845030909,18.85840617166832,1.366730116056975,157.9189660437405,96.22720678022522
19.05664525507018,1.9437497899281175,2.3785123347770423,0.9386083617294966,18.91026915749535,0.7210080431839967,11.029393080505542,121.30251050663269,19.05664525507018,1.3712788079371663,160.15513612143695,97.3843641088219
19.252171551343054,1.9528984730365524,2.415460038173478,0.951106840432846,19.104404148180038,0.7241859540764434,11.032310030423105,121.30707314624969,19.252171551343054,1.3829593049426225,162.3906374257058,98.54400633918273
19.43473202176392,1.9597239573101366,2.452558726305142,0.9637170256483429,19.295475457329303,0.7284695844220795,11.035316671710461,121.3115945057301,19.43473202176392,1.383576503996514,164.62544749490917,99.70476677650451
19.62341604521498,1.9681911584708023,2.48980449012015,0.9763561400308817,19.485319351311773,0.7325799873229368,11.038407546817325,121.31611538045131,19.62341604521498,1.389882965807801,166.85954413935542,100.86731095229486
19.809314584359527,1.9763258073490788,2.5271949526504613,0.98901504996502,19.67362306918949,0.7364728882440478,11.041586499195546,121.32066130933703,19.809314584359527,1.4003082349119642,169.09290291927755,102.0320289175922
19.990520518738776,1.983628239832383,2.5647275580558926,1.0017863949063353,19.859755008947104,0.7411878382706812,11.0448532034643,121.32516703302663,19.990520518738776,1.4005144370973968,171.32550176605582,103.1976758275096
20.171231427695602,1.990875068200672,2.602399310853798,1.0142968428478671,20.044049620628357,0.7424825496297801,11.048205905943178,121.32969824626096,20.171231427695602,1.4106969934562155,173.5573168937117,104.36537850530014
20.35395648283884,1.9985204098483385,2.6402076498488896,1.027022430649259,20.22727589774877,0.746571787643206,11.051645488594659,121.33423814692142,20.35395648283884,1.4182279151592876,175.7883262205869,105.53476879198236
20.538693563081324,2.0066022025423536,2.678150466585066,1.039745258046879,20.410049280617386,0.7501522057847846,11.055173617671244,121.33871840116224,20.538693563081324,1.4150535451792974,178.0185062829405,106.70455091276445
20.7270130882971,2.0155068180147717,2.7162262315978296,1.0524814357816872,20.593175985384732,0.7535696871537869,11.058791711227968,121.34327898408418,20.7270130882971,1.4339449807096645,180.24783062376082,107.87721249382939
20.904867727309465,2.0223898074062725,2.754434017871972,1.0650285847308614,20.774491604883224,0.7547189055769112,11.062503106659278,121.3477950164998,20.904867727309465,1.4332430647744436,182.4762770626694,109.0504225758951
21.07844523852691,2.0285882672802056,2.7927714237594046,1.07784025647032,20.953501940704882,0.7592285136349592,11.066302763298154,121.3523069380208,21.07844523852691,1.4385092391437844,184.70382202602923,110.22486988054898
21.255291774403304,2.035697441049996,2.831235608959105,1.0906299620212558,21.131321494001895,0.7628281077666111,11.070189491496421,121.35682136486169,21.255291774403304,1.4446487762534788,186.9304430242628,111.40062520597388
21.429349928162992,2.042416565038942,2.869824683468323,1.1033755620985701,21.307630113326013,0.7655928096932842,11.074165695230477,121.36137726866816,21.429349928162992,1.4571167331586397,189.15611620992422,112.57834944406467
21.6063551469706,2.0498302351419473,2.908536571019795,1.1161159618767802,21.48331878706813,0.768221128154566,11.078230916755274,121.36595933890474,21.6063551469706,1.4670303460165897,191.38082002662122,113.75771103458024
21.777007270604372,2.055957515088928,2.94736983650364,1.1290649514333262,21.65724038472399,0.773061257930756,11.082387311384082,121.37055029339497,21.777007270604372,1.4742613572880676,193.6045311037451,114.93834631819394
21.946047828998417,2.0616760269545034,2.9863222293788567,1.1422480114296012,21.829425835981965,0.7795943497091641,11.086632232763804,121.37513417053624,21.946047828998417,1.4786812460772993,195.82722744904459,116.11991960950866
22.112408697605133,2.0667261687471994,3.0253915797220543,1.155305816035567,21.99968636361882,0.7833464952293755,11.090965436887927,121.37979597932689,22.112408697605133,1.496716279761026,198.0488859899342,117.30394448310133
22.279600703623146,2.071922389064715,3.0645757408929057,1.1682850186202196,22.168572693597525,0.7857970191678286,11.095386672881432,121.38438736523393,22.279600703623146,1.490724652508159,200.2694870326668,118.48765573801228
