coupler,coupler,$D^a [mM]$,$D^a [mM]$,$I_{islet}^a\ [pg/islet]$,$I_{islet}^a\ [pg/islet]$,$\gamma^b$,$\gamma^b$,$I_{cell}^b [pg/islet]$,$I_{cell}^b [pg/islet]$,$G^b [mM]$,$G^b [mM]$
2.696762793639209,1.0730048205154203,0.5037754067016067,0.07129971049702129,2.5989489148487337,0.14230428109709406,11.004381649428979,120.98932991578282,2.4585235615086276,15.445624739518722,5.436810191196855,35.35620104675456
2.9783703784341924,0.9652048359494774,0.5113986326759914,0.10031626414487466,2.944003903947305,0.16277835592636897,11.0058627279941,120.99376152215294,2.795445162395481,10.961662406595345,7.67245040263515,35.55940805967814
3.2582498947158456,0.925651765543086,0.5208627363172127,0.12286002019517234,3.236875625909306,0.1732638326549088,11.005953071406111,120.99834361763159,3.046770639863098,7.960811110559244,9.907750396523625,35.80492294075221
3.536624928470701,0.914542032935534,0.5317290414386662,0.14244882748420454,3.518096601241268,0.18302004665998567,11.005383872659877,121.00281683144952,3.237741661374457,6.031958987886196,12.143121847999282,36.09130096339316
3.8134227318223566,0.9190632056144185,0.5438270554295741,0.15996589867503025,3.795717680361122,0.19076132962926676,11.004507168894634,121.00732418473689,3.385990988172125,4.872359263075406,14.378758950973861,36.41793992349775
4.090087610296905,0.9329006689566036,0.5570482560870005,0.17630799827634036,4.07250545185525,0.19953536870509725,11.003491406561807,121.01184550781457,3.504287942312658,4.236356550926356,16.614759415155277,36.78370786287755
4.365623693098314,0.9523242320378469,0.5713099861168303,0.19152290711538772,4.348217188147828,0.20618621375505294,11.002416289178655,121.01634617561338,3.601268843107391,3.9231703807299985,18.851170387817547,37.18728033649964
4.6396248346427456,0.9749470219837941,0.5865404036157997,0.20576947839974588,4.622479895479046,0.21162684619277936,11.001318917958997,121.02084036742365,3.6828556103864685,3.7878149033201227,21.0880134657491,37.62747536058365
4.910768695524894,0.9990674564296593,0.6026753779296996,0.21950361774579202,4.89416152110789,0.21870330561907728,11.00021618756,121.02531631004182,3.752796126238536,3.7411512615930036,23.325298906769603,38.10292902814942
5.180565510760061,1.0239848039092672,0.6196546392166056,0.23280706331036943,5.16424423630815,0.2253644969986631,10.999115469749086,121.0298068384868,3.8141666140872985,3.7361783500774837,25.563030869700015,38.6125210730585
5.450484990957193,1.0494847382358374,0.6374279810697772,0.24560276853825244,5.434100602404214,0.23035284984736076,10.998019843827933,121.03434878161805,3.8695612002629787,3.750295858344255,27.801211815327406,39.1551905774032
5.718994796741754,1.0749883385175463,0.6559544447663939,0.25813603833925186,5.702779546496458,0.2365594539639064,10.996930557768792,121.03881445506221,3.9203359857201576,3.7715972801521147,30.03984397323802,39.72865314147183
5.9859256179770455,1.1002263054613335,0.6751942803675774,0.27067973466707757,5.969955661217682,0.2447946374851188,10.995847896439955,121.04329743633558,3.96738937869668,3.797566675633608,32.27892421418801,40.33225996415767
6.251774207456037,1.1251552549532644,0.6951106756023364,0.2828086344427454,6.23596152686514,0.24854119964874602,10.994772003148682,121.04790989177916,4.011499383021146,3.827778449033308,34.51845250092447,40.96566426278489
6.51723722810857,1.1498484244351632,0.71567164172302,0.29480456336106614,6.501421177992597,0.25426917439023744,10.993703052517958,121.05243984129868,4.053419602918439,3.858720637344473,36.758432583883405,41.62571702646899
6.781154379015788,1.173973071852034,0.7368487868370721,0.30664029930553816,6.765531388344243,0.2593759007245607,10.992640971322544,121.05706391214396,4.093329354829621,3.8933706013632454,38.99886025534943,42.312756690422646
7.044685694621876,1.1977520637776833,0.7586145262903301,0.3182724480597075,7.029059714870527,0.26354817795673463,10.991585967014544,121.06165266858258,4.1317023009760305,3.929822387716081,41.23973771883175,43.02429975014583
7.305347939953208,1.2205834039951482,0.7809451421635458,0.3300585735833702,7.290173234650865,0.2713038895881366,10.990538128535263,121.06622043335881,4.168124964053277,3.968885944451028,43.481062279548496,43.759252411961704
7.565966548398137,1.243166220687647,0.8038146485632751,0.34173429320154974,7.550765895983204,0.2760302496140237,10.989497570204549,121.07084984650352,4.203155623865314,4.011762165898968,45.72283185319975,44.51731396581345
7.825490231625736,1.2652818537624766,0.8272032711829524,0.35317968763954577,7.810375586617738,0.27890824405965525,10.988464590045623,121.07548767766096,4.236869753280189,4.057492545679127,47.96504715271294,45.296792841220004
8.08407033723779,1.2870018275935569,0.8510916410305072,0.3647152456907613,8.069031074643135,0.28519055469157656,10.987439402611926,121.08009991427845,4.269365565793123,4.105823926651246,50.20770686818287,46.09621465671108
8.341547180898488,1.308319421450111,0.87546142397332,0.3762130817098902,8.32661050814204,0.28991923884934695,10.986422213725746,121.08482186046697,4.300663942412939,4.158519507505255,52.45080834487453,46.91612147539476
8.59831246198155,1.329359886602703,0.9002956066688057,0.38746815405478646,8.583402988500893,0.29179889094869466,10.985413417918608,121.08942726867276,4.330897094856482,4.212307841777579,54.694353804923594,47.75282659057011
8.85223279776983,1.3496112475087383,0.9255788396985736,0.3990880214909948,8.837759701767936,0.30096298676201094,10.984413102036342,121.09402883348571,4.359517482109368,4.2693849934869945,56.93833708949387,48.606733897070434
9.10254921275191,1.3688979598849857,0.9512933793885168,0.41053182502800717,9.088743876898661,0.3035238110023829,10.983421521959826,121.09875148364496,4.38591432251269,4.330854184403121,59.18275628052652,49.478526916674454
9.352973761968315,1.3881868715582737,0.9774218638194725,0.4218513183076831,9.33913784683682,0.3061755832599126,10.982439000392333,121.10343658938125,4.410773746087216,4.394049162845376,61.42761406302452,50.36533501075566
9.601719303289428,1.4070611596144358,1.0039520624268334,0.43326066379043765,9.588068480836228,0.31146334515696555,10.98146565631032,121.10810908972348,4.43403981695883,4.459683198247513,63.67290709260851,51.266665408884435
9.849473494337872,1.4257068704800762,1.030870945280185,0.4447280569120008,9.83591137896292,0.31634890820572026,10.98050169693306,121.11282586618051,4.455879777902737,4.528372782212598,65.91863290593028,52.18251255539442
10.09459899761714,1.4437130116171295,1.0581669292587321,0.45607902153265745,10.081431872909889,0.3187577128439593,10.979547413648106,121.11746857522894,4.475919575896114,4.598473962940623,68.16479102615267,53.110540550669825
10.338946440955624,1.461551450461581,1.0858273336780258,0.46731746456461404,10.325863579520956,0.32090181337994933,10.978602895163931,121.12217971956639,4.494452572369482,4.671924464147489,70.4113766727969,54.0520300626972
10.580595165723935,1.478743867325364,1.1138418320915662,0.4787479587290104,10.567916773958132,0.32711213250493126,10.97766847431194,121.12693273754627,4.511108070029877,4.747794432185104,72.65839014481753,55.005970856820085
10.823199713602662,1.4961987016118303,1.1421986286586616,0.4901852796299474,10.810257255798206,0.33086406542376207,10.976744362851605,121.13178718004721,4.526722934562713,4.826490332222464,74.90583077352494,55.97261119134483
11.061665181070566,1.5126087507838248,1.1708904656406958,0.5016087931552934,11.049342305399477,0.33415135981291916,10.97583091945853,121.13654061840933,4.540354518860113,4.905490408180477,77.15369975101203,56.948449276870576
11.299038182245567,1.5286726979982375,1.1999055734777357,0.5131899032477073,11.286900724517182,0.3397365838447288,10.97492811596021,121.14143138435534,4.552256917813793,4.988017281896718,79.40199111867696,57.93643137978051
11.5374642603565,1.5448742504948336,1.2292349367344286,0.5247183251038446,11.524994800798595,0.3423754586831585,10.974036338855512,121.14625381532696,4.563251843734179,5.0710896197754005,81.65070747584105,58.9329999244336
11.77317876345478,1.5602368837247287,1.2588728079863358,0.5362000127380915,11.761025294894353,0.34488948543225845,10.973155722604133,121.15108341529624,4.57278501719702,5.156063698637342,83.89984364341944,59.93879977217622
12.008710175286978,1.5753550104380987,1.2888102836441249,0.5478888270433817,11.99649519729428,0.35099519444265365,10.97228650667239,121.15590489269546,4.581227147835307,5.242627928454319,86.14939723908901,60.953142834755994
12.246804834110662,1.5909750887268364,1.319040585658513,0.5595138442681756,12.233902268810198,0.3532890451764992,10.971428943565115,121.16075289619961,4.589661706704646,5.331073170206601,88.39936523418874,61.976130172000346
12.48005118733272,1.6054012895356322,1.349560495611513,0.5710773107198994,12.467816814081743,0.3553937263585661,10.970583453308791,121.16553905952424,4.596623747434933,5.42034798479831,90.64974540378898,63.005986836589706
12.710622461512685,1.619259742604637,1.3803603086271323,0.5827133478708574,12.698891517240554,0.35936268580286923,10.969750174204819,121.17038339974887,4.601739847916178,5.511843813434378,92.90053267404437,64.04420528316521
12.944774307310581,1.6341596644269374,1.411431449931115,0.5943610784534265,12.932261504698545,0.36242997637152063,10.96892937971279,121.17535808065892,4.606625454733148,5.60571286151084,95.15172635670751,65.0915646319312
13.172971321735531,1.6478878218726432,1.4427716773643624,0.6062476512098037,13.161325527820736,0.36888313163966846,10.968121566693299,121.18031422254192,4.609550784691237,5.700033823553004,97.40332782268524,66.14535855327799
13.397836786229163,1.660998394629116,1.4743712337512989,0.6181063810169329,13.386862020008266,0.3714217149720385,10.967326786718331,121.18517823367775,4.610091928683687,5.794562730687079,99.65533346869051,67.20408953274887
13.621111724991351,1.6738095242791684,1.5062218703969847,0.6298314131256163,13.610419506207108,0.3720718341289753,10.966545022674836,121.19012623234543,4.608474571083207,5.891312055687664,101.90773702971637,68.270299434213
13.849976819008589,1.6879210419218391,1.5383172956644557,0.64177754182478,13.83805227279663,0.3779801996098395,10.965776561410166,121.19510817205632,4.607011087471619,5.989230193615189,104.16053861379623,69.34288993615021
14.078546037431806,1.7018490925060212,1.5706577188684605,0.6536829888445159,14.066262442618608,0.38015878359805383,10.96502180956304,121.19995968497868,4.60555431956891,6.086880717297099,106.41373580135405,70.41890217001956
14.303984489757568,1.7148647064564704,1.6032398552051745,0.665586437515906,14.292082505766302,0.38273663502148275,10.964280959800817,121.20495021702982,4.603150874085259,6.187156381459054,108.6673201136291,71.50251845878327
14.520847270265222,1.7257810358967813,1.636057328840252,0.677268455429251,14.51056304993108,0.3818025880058805,10.96355451992713,121.20995396589511,4.597500153933652,6.288122614575803,110.92129305377603,72.59141004515502
14.742340911179781,1.7377825557943318,1.6690990679780953,0.6891476590485951,14.731279438827187,0.3871262850691118,10.962842477369122,121.21498478066185,4.59095365885878,6.389988241028194,113.17565207928419,73.68558419498363
14.962425416335464,1.7495980456417293,1.7023637950769626,0.7011671237530365,14.95131486421451,0.39186113118624816,10.962145118159242,121.22007876727098,4.58334551245207,6.493017400245522,115.43039447255433,74.7854296097961
15.18084729788825,1.7612851069925843,1.735847536183428,0.7131778250956208,15.169883207883686,0.39422059017989886,10.961462751147337,121.22510649724005,4.5744836428784765,6.596037440002957,117.68551882915199,75.88856332434729
15.394530809018761,1.7722223157923407,1.7695457218796946,0.7251680244400801,15.38436663756147,0.39624242366657914,10.960795497405343,121.23018985723799,4.563310915313195,6.7003985017912475,119.9410189408809,76.9968604526776
15.610176770016551,1.7838798802906168,1.8034513664315455,0.7372292580158931,15.599602262955159,0.3996297435662041,10.960143570788205,121.23518085255243,4.551097771385685,6.804673183540985,122.19689333066344,78.10762520104424
15.82409245800227,1.7953327009372104,1.8375622754101641,0.7492522455588131,15.813603401649743,0.4013180353806361,10.959507107385434,121.24030587453159,4.53762574843131,6.9109369015384114,124.45313472673297,79.22455756569974
16.030927933752537,1.8052854444887938,1.87187452201033,0.7613908728731273,16.021692746784538,0.40537221471782336,10.958886561216787,121.24532062522036,4.521137161587831,7.016730211715565,126.70974411070347,80.34329849573643
16.243225620593876,1.816472863208547,1.9063798898714595,0.7732726629819769,16.23296886170283,0.4033939452326367,10.958281804807484,121.25043629038935,4.504164330603089,7.124128195278152,128.96671392396092,81.46734410050423
16.453896017745137,1.827243101949101,1.9410789254470728,0.7855521343498215,16.44357979344204,0.41180480772284744,10.957693328964524,121.25558014647439,4.486353256565053,7.232097426022367,131.2240436039865,82.59528270463063
16.661852287128568,1.837378137969312,1.9759682911098935,0.7979341298563217,16.651885863393545,0.41588788982236446,10.957121424842626,121.26063700631445,4.467130110249855,7.339879968570903,133.4817299619317,83.72497689515998
16.866627167910337,1.8468187461215875,2.011043615581002,0.810141922114328,16.857185268308967,0.4152573482639148,10.956566195935011,121.26576662499056,4.445953125425149,7.448942411043971,135.73976561427116,84.85908830568239
17.06934374338016,1.8558613937536863,2.0463000527815893,0.8224370786179614,17.06023607729003,0.4186176749476426,10.95602794829756,121.27092620592032,4.422780217893887,7.558599520914145,137.99814917333424,85.99674117507476
17.27451974945143,1.865552005789346,2.0817333756713197,0.8350159016487321,17.264804183505476,0.4253430034755837,10.955506870057434,121.27603427098262,4.398937291232869,7.6682915845965285,140.25687761045992,87.13639043775828
17.474977941717952,1.8743470656195906,2.117342718236614,0.8475189500901772,17.46590106515214,0.42637374218901525,10.955003200215288,121.28119309888554,4.3731993968831375,7.778914401372617,142.51594446785748,88.27973007980145
17.680251692887396,1.8843204751603264,2.153123189404141,0.8600320163296787,17.670155617408454,0.42850457819512655,10.954517212929204,121.2863618254034,4.347569279372692,7.889967838064067,144.77534729801118,89.42593139917692
17.8803479061462,1.8932707557909718,2.1890754475607537,0.8725475715122976,17.870899207424372,0.43057417678666243,10.954049309133552,121.29158874385153,4.320451004372444,8.001768995931458,147.035081544891,90.57574645040543
18.0786959878169,1.9019201916712876,2.2251946144388057,0.885120714838622,18.06954163359478,0.4335000221700358,10.953599787433632,121.29681073136679,4.291756382561289,8.11378661758291,149.29514469765127,91.72795577380764
18.27570774545893,1.9103372118248896,2.261477089661639,0.8977485452942557,18.266694345511496,0.43638743512398853,10.953168843872845,121.3019696494014,4.261547292699106,8.22580599805594,151.55553200282156,92.88143817091152
18.468707563355565,1.9179424486843324,2.297919883800205,0.9101750544928827,18.460339155513793,0.4349495677123763,10.952756645157933,121.30715906924293,4.229064514162019,8.338575479957921,153.81623638607562,94.03778876412142
18.667224335018545,1.9268525732576032,2.334518547402695,0.9225486725287748,18.65769549412653,0.43571191637458534,10.952363428426906,121.31232459452673,4.1966354757896625,8.451588935284784,156.07725436240435,95.19595402493472
18.85840617166832,1.934403559197711,2.371274351608008,0.9350747443919188,18.84992582211271,0.4400678196718541,10.951989581459202,121.31749365022189,4.162033923261333,8.565068872705696,158.33857980929315,96.35635017741897
19.05664525507018,1.9437497899281175,2.4081815587705933,0.947632268818503,19.046776418574154,0.442476953666358,10.95163530902937,121.3226846917344,4.1280193125712685,8.679045530233257,160.60020804405212,97.51924014263717
19.252171551343054,1.9528984730365524,2.4452422524336725,0.9600263603902477,19.2423805128783,0.44151664004309565,10.951301106251776,121.32795265345572,4.093592395889573,8.793729433203163,162.86213429644704,98.68553848595471
19.43473202176392,1.9597239573101366,2.482453955512028,0.9726000278245324,19.42736226087436,0.4462373787554909,10.950987424468622,121.33307222965499,4.054977935971692,8.907782822205471,165.12435594759881,99.85109740904272
19.62341604521498,1.9681911584708023,2.519806961645372,0.9850949166937698,19.615118112880737,0.44665530757356964,10.950694062397815,121.33824132271863,4.015260155661963,9.02269322566245,167.38686297647655,101.01946857478534
19.809314584359527,1.9763258073490788,2.557302097964566,0.9978378013302293,19.80120011093095,0.452531845724139,10.950421443674713,121.3434172325128,3.973925613157917,9.13794345519419,169.6496518291533,102.18981228367886
19.990520518738776,1.983628239832383,2.5949366666027345,1.0104876632869222,19.983193058054894,0.4527819073617701,10.950169843970798,121.34863638693133,3.9300428612623364,9.253678420330312,171.91271747089922,103.36273673327965
20.171231427695602,1.990875068200672,2.6327064341749065,1.0231307385390394,20.163971908856183,0.45421189227170683,10.949939487036318,121.35380980530421,3.8842193259624764,9.369373585596934,174.17605628073215,104.53656720017139
20.35395648283884,1.9985204098483385,2.670609265798703,1.0359104284819745,20.346119028050452,0.4581516938640092,10.949730550637469,121.35906221105556,3.837633057148196,9.485766934203362,176.43966121785343,105.71354069086124
20.538693563081324,2.0066022025423536,2.7086449249763973,1.048858030396688,20.53014926565811,0.46276817404741266,10.949543495196849,121.36424540827839,3.7911082800710574,9.601974684746686,178.70352944545448,106.89088756866187
20.7270130882971,2.0155068180147717,2.7468135730014183,1.0617444977475932,20.717421929817647,0.4634969182707686,10.94937865389511,121.36945867676106,3.745693148463033,9.718679682956497,180.96765221469104,108.07038830646297
20.904867727309465,2.0223898074062725,2.7851163978339173,1.0745326931949384,20.896970957051963,0.4634217171073654,10.949236615211703,121.37468869121375,3.697907450143248,9.835701107780544,183.2320242188871,109.25174410998848
21.07844523852691,2.0285882672802056,2.823546743427869,1.0874556191406268,21.071553338784724,0.4672669499429424,10.949117619427852,121.37995023321933,3.6471715209190734,9.953059510163351,185.49664030596614,110.43518910576334
21.255291774403304,2.035697441049996,2.862099973601289,1.1004499549649096,21.247757495380938,0.470130618031154,10.949021872482263,121.38517852230221,3.595343596301973,10.070440591594174,187.76149605214596,111.61949456475848
21.429349928162992,2.042416565038942,2.9007762193796225,1.1133849005947816,21.422055187169462,0.47069017996566626,10.948949674027972,121.39040946789831,3.541907357343007,10.18810409540881,190.0265839677304,112.80529187984882
21.6063551469706,2.0498302351419473,2.939573182433378,1.1265803670887566,21.5983291096054,0.47672173295410775,10.948901350027882,121.39567047174094,3.488222247280646,10.306120808448146,192.29189809411764,113.99305520257565
21.777007270604372,2.055957515088928,2.978491155023221,1.1395568642507807,21.769915770273656,0.4746333033076022,10.948877366958186,121.40085699864936,3.432450002117548,10.42403536052101,194.55743290483952,115.18081017849718
21.946047828998417,2.0616760269545034,3.0175260933465324,1.1525216000654166,21.939275545999408,0.4757448224082498,10.94887792528607,121.40613018390538,3.3747264681151137,10.54259482541547,196.8231794219464,116.37152747474674
22.112408697605133,2.0667261687471994,3.056675530038774,1.165525569122336,22.106046114116907,0.47785367149257707,10.948903438751586,121.41132699337516,3.314826571790036,10.660981062794557,199.08913451619446,117.56214339762654
22.279600703623146,2.071922389064715,3.0959368409239687,1.1785747357733072,22.272963696625084,0.4800834007592804,10.948954103980213,121.41654105303753,3.2536461086710915,10.77971426930021,201.3552889674902,118.75438618476926
