coupler,coupler,$D^a [mM]$,$D^a [mM]$,$I_{islet}^a\ [pg/islet]$,$I_{islet}^a\ [pg/islet]$,$\gamma^b$,$\gamma^b$,$I_{cell}^b [pg/islet]$,$I_{cell}^b [pg/islet]$,$G^b [mM]$,$G^b [mM]$
2.696762793639209,1.0730048205154203,0.5037754067016067,0.07123314966392096,2.550041976326611,0.14224120717771263,11.004381649428979,120.98937046216618,2.4585235615086276,15.445682486632915,5.436810191196855,35.35624141043109
2.9783703784341924,0.9652048359494774,0.5111172005563276,0.1010029361778797,2.9121485828072764,0.16664985799826237,11.005862750345841,120.99397487766264,2.795445162541,10.962128546601328,7.672451869642828,35.55973889303529
3.2582498947158456,0.925651765543086,0.5204190054937499,0.12381686442617379,3.216634339885786,0.1781007576828448,11.005953216576017,120.99854958739319,3.04677059451933,7.9610987891878,9.90775957715232,35.805235167632034
3.536624928470701,0.914542032935534,0.5311911769240396,0.14319087836640132,3.50276391080115,0.18662360442719075,11.005384070216678,121.00308396987124,3.2377413480426185,6.032489324879424,12.143138441257179,36.0917965003708
3.8134227318223566,0.9190632056144185,0.5432237008208176,0.16055989956725292,3.7822700067190453,0.19475123748104908,11.00450744421687,121.0076346142617,3.3859902597614564,4.873006293959815,14.378785157343373,36.41859133705761
4.090087610296905,0.9329006689566036,0.5563915527163772,0.1768811101153716,4.059685282991268,0.20437074657110277,11.003491757204756,121.01211907320884,3.504286628565751,4.236412599093007,16.61479677981697,36.784196330001194
4.365623693098314,0.9523242320378469,0.5706057255592896,0.1917558651770304,4.3356735546840355,0.20923598620934,11.002416645758785,121.01667536344493,3.6012667783070356,3.923766346214685,18.851217559771612,37.18803883168419
4.6396248346427456,0.9749470219837941,0.5857928785699187,0.20615233154850585,4.610150380874984,0.2179049031014965,11.001319330884144,121.02111431070509,3.6828527199686505,3.7875642320776945,21.088072459911928,37.62792300010708
4.910768695524894,0.9990674564296593,0.601887383745634,0.21995601202033135,4.882165504619479,0.22490529229072498,11.000216579646803,121.02559583395386,3.752792294428218,3.7411139138464926,23.325367707759142,38.103407448109145
5.180565510760061,1.0239848039092672,0.6188294724415755,0.23338154235629507,5.152491569053382,0.23225797424575012,10.999115857877769,121.0300925124702,3.8141618244117126,3.7362541001921987,25.56310968543403,38.613036623970586
5.450484990957193,1.0494847382358374,0.6365682203468168,0.2462304834583659,5.422389708226547,0.2370476070203217,10.998020240105689,121.03462743513651,3.8695554326404817,3.7502805709801814,27.801300863735378,39.15565129732663
5.718994796741754,1.0749883385175463,0.6550619752815692,0.25883041211473845,5.691166051314212,0.2435047941782451,10.99693094799295,121.03914997995923,3.9203292200691067,3.7722580852907877,30.039943005423993,39.729548060020115
5.9859256179770455,1.1002263054613335,0.6742708886449691,0.27107093373209734,5.958494317368604,0.24844048687122192,10.995848344173282,121.04364052372414,3.967381607973948,3.798004184208611,32.27903530607,40.33320674951244
6.251774207456037,1.1251552549532644,0.6941584780870471,0.28309391296097575,6.224624689784832,0.25390962512776794,10.994772492791526,121.04819524972245,4.011490538949147,3.8273686040674044,34.518575901165605,40.9660991304227
6.51723722810857,1.1498484244351632,0.7146920106461039,0.2951556442244263,6.490120233269408,0.261506830604542,10.993703504675068,121.05273408920986,4.0534096315386705,3.8586589453595823,36.758566186297685,41.62622953828293
6.781154379015788,1.173973071852034,0.7358427652943647,0.30692997366911273,6.754337977385148,0.2656595398491853,10.992641416145489,121.05723617166218,4.093318281928077,3.8919746443018455,38.99900441383943,42.31209746711786
7.044685694621876,1.1977520637776833,0.7575834772287635,0.3188189726586637,7.017897272715345,0.27328822131740665,10.991586281219497,121.06191673716523,4.131690132780932,3.9302172788496748,41.23988801566884,43.024571056138
7.305347939953208,1.2205834039951482,0.7798898015607847,0.3305518138714086,7.279245966114104,0.27811927994110336,10.990538477315567,121.06654899029806,4.168111842125654,3.969828147747251,43.481222074478865,43.760192117714965
7.565966548398137,1.243166220687647,0.8027365997550078,0.3422364275741621,7.539896395755932,0.28353020521475714,10.989498008275405,121.07118757943782,4.203141542791855,4.012343052947137,45.7230034689419,44.518340324298684
7.825490231625736,1.2652818537624766,0.8261033713642973,0.35363377601145896,7.799566603498533,0.28598240959173876,10.988465082482435,121.07576355631855,4.236854638555087,4.057098234568561,47.965230892878026,45.29711775775298
8.08407033723779,1.2870018275935569,0.8499707748705987,0.36512677492438445,8.058278104057536,0.2922548672241819,10.987439855001867,121.08038283913544,4.269349356472958,4.105744357851784,50.20790047617629,46.09661869260446
8.341547180898488,1.308319421450111,0.8743203731428366,0.3767118363871304,8.315925799775869,0.2987118842382926,10.98642265656963,121.08509967500605,4.300646664167289,4.158450978059922,52.45101209403947,46.91646226754593
8.59831246198155,1.329359886602703,0.8991350147407502,0.38806131799641347,8.57275252812542,0.30108496023684106,10.985413851216435,121.08976115722763,4.330878757231403,4.21293095549119,54.69456752482802,47.75384438219561
8.85223279776983,1.3496112475087383,0.9243993347627111,0.3995496305838292,8.827337878523394,0.307405288466422,10.984413597732782,121.09440293837456,4.359498098085169,4.2701661774862965,56.938562823459506,48.60823707180641
9.10254921275191,1.3688979598849857,0.9500960550212767,0.4108985582927312,9.07872464810498,0.3104961927341076,10.983422095887363,121.09907205831678,4.385893838130869,4.330681279062792,59.18299546930939,49.4793292072539
9.352973761968315,1.3881868715582737,0.9762078463390935,0.42227656150356346,9.329224231420085,0.31517771262405714,10.982439551502466,121.10379642558343,4.410752078460064,4.394446939826221,61.42786474060267,50.366636479299224
9.601719303289428,1.4070611596144358,1.0027218662435189,0.4337895772861203,9.578279233770445,0.32125806335794815,10.981466250144877,121.10852497553171,4.434016968938522,4.460539653251414,63.67317069042474,51.26868942314758
9.849473494337872,1.4257068704800762,1.029625146446051,0.44529610820570115,9.82620393880643,0.3255649319627824,10.980502380174585,121.11325400348868,4.455855709151365,4.528985675125702,65.91891146451235,52.18467109573527
10.09459899761714,1.4437130116171295,1.0569060779816937,0.4568819763447065,10.071946592070162,0.33072054412160146,10.979548161965795,121.11802610698963,4.475894194620196,4.60023616760127,68.1650849673897,53.1144380825321
10.338946440955624,1.461551450461581,1.0845519993745256,0.46827405965120705,10.316487238975242,0.3322160984706933,10.97860383160878,121.1227463477894,4.4944257998722605,4.672985337145996,70.41169067658484,54.055992215783824
10.580595165723935,1.478743867325364,1.1125525543757249,0.47951732427266114,10.558775496436283,0.33374709120373575,10.977669530082494,121.12751350315338,4.511079709569458,4.7486032310591195,72.65872446633875,55.010070144060414
10.823199713602662,1.4961987016118303,1.1408962662389968,0.49095924389620765,10.801054527051747,0.3398554562498361,10.976745508261956,121.13226911162766,4.526692839281168,4.826036471016392,74.90618590544909,55.97523052562735
11.061665181070566,1.5126087507838248,1.1695751302177086,0.5023884418110374,11.040431030327454,0.3434715292652752,10.975832012016326,121.13703764327835,4.5403225719346665,4.905603950180908,77.15407210309058,56.9512490662224
11.299038182245567,1.5286726979982375,1.1985779273381922,0.5138789615011877,11.278169689467177,0.34777452208049736,10.974929218995385,121.1418317064277,4.552223145728931,4.987272149715382,79.4023812469095,57.93776855628075
11.5374642603565,1.5448742504948336,1.2278955292713363,0.5255281544177758,11.516151902498677,0.35344079787573096,10.97403735097032,121.14664207449772,4.563216249633115,5.0707635872432055,81.65111186634749,58.93414128778453
11.77317876345478,1.5602368837247287,1.257521624182118,0.5369258822841457,11.752306950744241,0.3534396463385315,10.973156689782627,121.15156129610972,4.572747710859403,5.156908707223718,83.90026185289025,59.94127596368959
12.008710175286978,1.5753550104380987,1.2874478178855497,0.5485206227596543,11.987783529562876,0.3591219522596246,10.972287571523339,121.15640773390089,4.581188220530748,5.243397027435525,86.14983258023858,60.95596371526319
12.246804834110662,1.5909750887268364,1.3176670841348823,0.5599774215083112,12.224848866462708,0.3605117577897426,10.971430103294551,121.161297702583,4.589621121413074,5.33197355326028,88.39981856476516,61.97955536101092
12.48005118733272,1.6054012895356322,1.348175795545103,0.5716226055060215,12.458995023043826,0.3661528679397801,10.970584725262597,121.16614934050759,4.5965814486844465,5.421541672240427,90.65021822974086,63.0103774932406
12.710622461512685,1.619259742604637,1.3789647757366765,0.5831784246937475,12.690391015727073,0.36810991369219037,10.969751593074761,121.17108069017864,4.601695753168315,5.513393696249613,92.90102735348046,64.0498922755586
12.944774307310581,1.6341596644269374,1.410025726800086,0.5948504829819098,12.92346650827676,0.37263031575556105,10.968930995441042,121.17596647620891,4.606579431449063,5.605865734109246,95.15224598348141,65.09576653771946
13.172971321735531,1.6478878218726432,1.4413555658829864,0.6064641975487476,13.152875762898475,0.37482227052115086,10.968123194645159,121.18087692360415,4.609502646198962,5.699931871831555,97.40386917442083,66.14877507576703
13.397836786229163,1.660998394629116,1.4729454402113333,0.6184174997684656,13.37885133549571,0.3825919472902123,10.967328396509402,121.18581550253522,4.610041646286845,5.795395801044316,99.65589485503733,67.20865396358212
13.621111724991351,1.6738095242791684,1.504786881065229,0.630104666412056,13.60268190363422,0.3818882173324275,10.966546743758954,121.19072724579141,4.608422173012514,5.891629630589528,101.90832118690014,68.2742158306771
13.849976819008589,1.6879210419218391,1.5368736055097543,0.6415599148246712,13.829780471045524,0.38070744001673257,10.965778321609832,121.19570696138425,4.606956511444878,5.989597181486399,104.16114419698715,69.3467176765214
14.078546037431806,1.7018490925060212,1.5692051106889267,0.6533767331446912,14.05765077797696,0.38842713214616426,10.965023614582606,121.2007016061347,4.605497562966775,6.088484181369362,106.41436270438135,70.42501938594366
14.303984489757568,1.7148647064564704,1.601777957228478,0.6652695903953396,14.283559705596417,0.39269084583997077,10.964282989501953,121.20562752879546,4.603091936034616,6.187648561816847,108.66797352954745,71.5074888469545
14.520847270265222,1.7257810358967813,1.6345863342867233,0.6768208707735813,14.502875846344978,0.3902077209072026,10.963556615286507,121.21062422180017,4.597438876633532,6.288572748362926,110.9219705928117,72.59619777667365
14.742340911179781,1.7377825557943318,1.6676200134097598,0.6886620716078886,14.72345428634435,0.39661744595697296,10.962844635127112,121.21559827159005,4.590890004474204,6.390026448206673,113.17635346017778,73.68936489304136
14.962425416335464,1.7495980456417293,1.7008766337530687,0.7006096127745808,14.943423830438405,0.40106183115070376,10.962147273588926,121.22062664143174,4.583279464568477,6.492785227164076,115.43111763522029,74.78806546550516
15.18084729788825,1.7612851069925843,1.734352330735419,0.7128021889804066,15.162045653443784,0.4074685894150046,10.96146486478392,121.22566023852953,4.574415251554456,6.596206232488142,117.68626136519015,75.89126814316305
15.394530809018761,1.7722223157923407,1.7680425368598662,0.7247598123908046,15.376945184078068,0.40665867657340565,10.960797627922148,121.23071363161755,4.563240292656701,6.700463229855534,119.94178109243512,76.99902844982537
15.610176770016551,1.7838798802906168,1.8019407883402891,0.7367080697939816,15.592100496869534,0.4085437822472997,10.960145700257272,121.23572081891365,4.551024985092226,6.805010870868597,122.19767401739955,78.11004599292662
15.82409245800227,1.7953327009372104,1.8360443689743988,0.7487475319981861,15.806120268534869,0.41222544580016846,10.9595092816744,121.24067215742319,4.537550878943875,6.910003598488436,124.45393452048302,79.22398955830339
16.030927933752537,1.8052854444887938,1.8703493575449102,0.760818824657562,16.01484218193218,0.4151238141116538,10.958888573921286,121.24575691214662,4.521060248196591,7.016907866138912,126.71055667102337,80.34394630778328
16.243225620593876,1.816472863208547,1.9048481741338037,0.773117987359259,16.22579728299752,0.42096892158107385,10.958283837302588,121.25077911772605,4.504085596185178,7.123647137962901,128.96754184924066,81.46638308582243
16.453896017745137,1.827243101949101,1.93954027275322,0.7854803954324201,16.43628235301003,0.42455254603895953,10.957695271121338,121.2558293896684,4.486272777139675,7.231275497032825,131.2248834874481,82.5927260444362
16.661852287128568,1.837378137969312,1.9744227864430286,0.7978589665548618,16.644725622143596,0.42718251520518913,10.957123217638582,121.26097305225892,4.467048043443356,7.340073341230638,133.48257837817073,83.72396819067063
16.866627167910337,1.8468187461215875,2.009491500968579,0.8100621569824813,16.85032847477123,0.42662915307135235,10.956568013993092,121.26613883379946,4.44586968497606,7.449247634686009,135.7406258098781,84.85873069659768
17.06934374338016,1.8558613937536863,2.0447416767128743,0.8224385925065002,17.053637459874153,0.4312549516500312,10.956029811291955,121.27129833107975,4.422695456654765,7.558714862843324,137.99902245402336,85.99639498448418
17.27451974945143,1.865552005789346,2.080169009626843,0.8348141619550972,17.257979133632034,0.4335578651851566,10.955508744576946,121.2764659260036,4.398851204197854,7.66869837928723,140.25776391848922,87.1371005242435
17.474977941717952,1.8743470656195906,2.1157723336364143,0.8472546287607734,17.459327367134392,0.4367035906828027,10.955005139228888,121.28162193552639,4.373111982073169,7.779077254488144,142.51684598997235,88.28038973345001
17.680251692887396,1.8843204751603264,2.1515470254817046,0.8595803516514496,17.663147730287164,0.43698513301412906,10.954519174527377,121.28680516647213,4.347480469790753,7.890135574903182,144.77626392804086,89.42684688791142
17.8803479061462,1.8932707557909718,2.187493247038219,0.8718794290256339,17.864084695465863,0.43840711937169397,10.954051292850636,121.29194633956313,4.320360754558351,8.00134764337739,147.03601380065084,90.57514125675436
18.0786959878169,1.9019201916712876,2.223606620740611,0.8843272670774869,18.062932239379734,0.4427398037683875,10.953601682325825,121.29712807430616,4.29166464577429,8.113354212615306,149.29608947224915,91.7266519620254
18.27570774545893,1.9103372118248896,2.2598835060489364,0.896697191570157,18.260216927155852,0.44362502461239645,10.953170647611842,121.30231672235342,4.2614541327930056,8.225755652531667,151.55648784525692,92.88068791728072
18.468707563355565,1.9179424486843324,2.2963209168519825,0.9092237012389311,18.454223735723644,0.4479964956697305,10.952758424915373,121.30754958229811,4.22897001815727,8.338769674764944,153.81720440648496,94.03783132429032
18.667224335018545,1.9268525732576032,2.3329144345480017,0.9218753239250886,18.651108517311513,0.45215206227833193,10.952365236938931,121.31272783252024,4.196539674012456,8.451728503225523,156.0782361831516,95.1962321207841
18.85840617166832,1.934403559197711,2.369664710597135,0.9344096455418403,18.843721746467054,0.4523526951191639,10.951991406385787,121.31787748709138,4.161936782824341,8.565016122225748,158.3395758792758,96.35628519983078
19.05664525507018,1.9437497899281175,2.4065668248804286,0.9469532320779661,19.039992980193347,0.4541885737636059,10.951637111487798,121.32307861426483,4.127920798375271,8.679063604054027,160.60121767409146,97.51936570677674
19.252171551343054,1.9528984730365524,2.443622040504124,0.9597121257800894,19.235462167765945,0.4596155196615856,10.951302903937176,121.32831982361914,4.093492505373433,8.793591975829678,162.86315786838531,98.68518865420224
19.43473202176392,1.9597239573101366,2.4808281042496674,0.9723853301142455,19.421614257153124,0.4604068895439063,10.950989182689227,121.33354021767013,4.054876654234249,8.908221011284331,165.12539243139327,99.85258188067579
19.62341604521498,1.9681911584708023,2.518176486424636,0.9850405850656877,19.609257181640714,0.461766154851976,10.95069590152707,121.33878920764472,4.015157505869865,9.023309003726844,167.38791606388986,101.0223915060064
19.809314584359527,1.9763258073490788,2.5556669422076084,0.9977768854739513,19.79539710842073,0.4648305698532457,10.95042340666987,121.34401807689368,3.9738214959506877,9.138543361526981,169.65072443149984,102.19367182089344
19.990520518738776,1.983628239832383,2.5932969666901045,1.0104889878085606,19.977800944354385,0.4662778776085368,10.95017192652449,121.34928741953655,3.9299371202359907,9.25429801852631,171.9138115271926,103.36747437994042
20.171231427695602,1.990875068200672,2.6310625167679973,1.0232604053829641,20.158737064804882,0.46892533765408495,10.949941697297618,121.35448400821716,3.884111790684983,9.369919436478275,174.17717354744673,104.54168322469317
20.35395648283884,1.9985204098483385,2.6689612641348504,1.035981643960662,20.340642449446023,0.46982355099675527,10.949732874054462,121.35971792515278,3.8375235541607253,9.48612866447049,176.4408025033772,105.71827164306336
20.538693563081324,2.0066022025423536,2.7069927518605255,1.0489139670990033,20.52424673270434,0.4749631621220909,10.949545886483975,121.36503051702925,3.7909966621664353,9.602932876295167,178.7046940587461,106.8979431907833
20.7270130882971,2.0155068180147717,2.7451569495606236,1.0618976261026953,20.710868182126433,0.47784409083758134,10.94938125682529,121.37027065536189,3.745579336769879,9.719510563910822,180.96884492225945,108.0778693551516
20.904867727309465,2.0223898074062725,2.7834548664395697,1.0748102677928812,20.891069093253464,0.4784889723814069,10.949239401030354,121.3755364832847,3.697791241109371,9.836554561817977,183.23324586823583,109.25981198941605
21.07844523852691,2.0285882672802056,2.8218807982630096,1.087643048570098,21.066349543631077,0.4786771682295446,10.949120597098954,121.38075663690087,3.6470527470228262,9.953645285014952,185.4978922214359,110.44241971280724
21.255291774403304,2.035697441049996,2.860430200176779,1.100448774086074,21.242441891226918,0.4796387705985286,10.949024981469847,121.3859830429548,3.595222099625971,10.071084852711842,187.7627765983343,111.62662420187816
21.429349928162992,2.042416565038942,2.8991026004659943,1.1133698279177686,21.416825720109046,0.483102779555835,10.948952927952632,121.39123577586393,3.541783077060245,10.188879814703226,190.0278930813074,112.8127591565737
21.6063551469706,2.0498302351419473,2.9378957661101595,1.1263795287573544,21.59275982202962,0.4863339832013987,10.948904781369492,121.39651570210512,3.4880951420636848,10.306956875411727,192.2932365294546,114.00080509986056
21.777007270604372,2.055957515088928,2.9768097812193446,1.1397206189186975,21.764711712952703,0.49370812343987036,10.948880993179046,121.40175661918329,3.4323200213257223,10.425042401048698,194.5588013175875,115.18949776118112
21.946047828998417,2.0616760269545034,3.015840899432078,1.1527513266787182,21.934340861160308,0.4905234986722593,10.948881791555323,121.40698808128812,3.374593554646708,10.543352131987426,196.8245797343552,116.37936382511309
22.112408697605133,2.0667261687471994,3.0549867933732457,1.1658143231709244,22.101397118531168,0.4921440830227816,10.948907485231757,121.41231731210482,3.3146906279725954,10.662244348362051,199.090565148741,117.57236976282844
22.279600703623146,2.071922389064715,3.09424478613073,1.1788773354655657,22.268263223115355,0.49361477869099774,10.948958459775895,121.41754730528123,3.2535071157617494,10.780838675576788,201.35675469599664,118.76481759850402
