coupler,coupler,$D^a [mM]$,$D^a [mM]$,$I_{islet}^a\ [pg/islet]$,$I_{islet}^a\ [pg/islet]$,$\gamma^b$,$\gamma^b$,$I_{cell}^b [pg/islet]$,$I_{cell}^b [pg/islet]$,$G^b [mM]$,$G^b [mM]$
2.696762793639209,1.0730048205154203,0.5037754067016067,0.07077570845230678,2.354414219793398,0.1418898389551926,11.004381649428979,120.98940349111751,2.390455209388165,19.8554888192683,5.436810191196855,35.35627429052595
2.9783703784341924,0.9652048359494774,0.5099344240443315,0.10021554032069815,2.686913392099086,0.18272816383281829,11.00771494593937,120.99395499409124,2.681919297639979,18.038836064168102,7.672471880912781,35.55977356238369
3.2582498947158456,0.925651765543086,0.518037279121927,0.12331149275710553,3.0035059060901403,0.20871704874637076,11.010245052166283,120.9984513544804,2.884167440905003,16.52130850259714,9.907300883554853,35.80525770273953
3.536624928470701,0.914542032935534,0.5277838464680826,0.1425199955296658,3.308473600423895,0.22573820097897174,11.012163248611614,121.00296143276098,3.006006366398651,15.277550708329567,12.141541094169952,36.09200913759266
3.8134227318223566,0.9190632056144185,0.5389600811904529,0.16018016452632552,3.604797897278331,0.2418658612544273,11.013618429657072,121.00749902174442,3.055344585853163,14.281681024854448,14.375383605947718,36.41911786674233
4.090087610296905,0.9329006689566036,0.5514044267329155,0.17601813949005804,3.895003567566164,0.25360365422632347,11.014726187917404,121.01207186941335,3.0394361454236787,13.50687215767607,16.60897677205503,36.78556139225244
4.365623693098314,0.9523242320378469,0.5649943574389908,0.19075434309682038,4.180562335532159,0.2641010757066483,11.01557606633287,121.01651598230788,2.964703859295696,12.924971185415295,18.84243537602015,37.18939280830408
4.6396248346427456,0.9749470219837941,0.5796311373705976,0.20515235480316368,4.462385112303309,0.27646727782172004,11.016237205825746,121.02100932867977,2.8368828124075662,12.508500595520589,21.07584187039174,37.63018532635733
4.910768695524894,0.9990674564296593,0.5952326217520749,0.21888156574577025,4.74071496410761,0.2870095854913406,11.016763208666816,121.02547487964158,2.6609988592972513,12.229985045429117,23.30926455790177,38.106214043948725
5.180565510760061,1.0239848039092672,0.6117290544352727,0.2320800604088923,5.016176702338271,0.29647241743764485,11.017195528023876,121.02995476058553,2.4417234181892127,12.064103508485879,25.542752825422212,38.61638148791289
5.450484990957193,1.0494847382358374,0.6290609843126731,0.2448243048019574,5.2896500517381355,0.3050576093935057,11.017566454131156,121.03443788227725,2.1834056465595495,11.988072484169908,27.776344909798354,39.15925681204338
5.718994796741754,1.0749883385175463,0.64717821625527,0.25731127334314824,5.561292342259549,0.3138524104565146,11.01790133328177,121.03896518570863,1.889804934791755,11.982445768307576,30.01006857631728,39.733789251468565
5.9859256179770455,1.1002263054613335,0.6660361617978197,0.2697722002166627,5.8311639939202,0.32390066194555556,11.018220343859866,121.04349146031,1.5642866212438093,12.030942999732329,32.24394506961107,40.3382915882069
6.251774207456037,1.1251552549532644,0.6855947486765217,0.28176648056961523,6.099457307602279,0.3309925242628877,11.018539831740782,121.04802250253049,1.209928278985899,12.120618628510645,34.477987529709935,40.97147929879279
6.51723722810857,1.1498484244351632,0.7058187882212223,0.2936541213496831,6.3665166052524,0.3388176251981937,11.018873425200582,121.05260352062213,0.8295688168727793,12.241412881277858,36.71220399113372,41.63246794103502
6.781154379015788,1.173973071852034,0.7266766051907325,0.3054826774551134,6.632235652767122,0.3470741233448538,11.019232853432186,121.05717749577421,0.4256468578823842,12.385552548101279,38.94659954914823,42.31949308068252
7.044685694621876,1.1977520637776833,0.7481390627654037,0.317021811146639,6.896888775983825,0.35340766618844793,11.019628565292805,121.06168054385016,0.00047292546346966446,12.54731212391495,41.18117336882278,43.03070516811674
7.305347939953208,1.2205834039951482,0.7701802921801573,0.3286293623551755,7.159923572326079,0.3614240697440331,11.020070202415809,121.06638177345715,-0.444121836379054,12.72259939550988,43.41591881355271,43.76768618997095
7.565966548398137,1.243166220687647,0.7927749300433788,0.34011434800463203,7.421801655786112,0.3684754907244068,11.020567008294165,121.07090168353737,-0.9062066268670605,12.91189228996552,45.65083578368649,44.52538880684294
7.825490231625736,1.2652818537624766,0.8159007684153039,0.3515663299440127,7.682531242026016,0.37560285968550655,11.021129110828042,121.0753530308428,-1.3841488828184083,13.11248487662067,47.885907428804785,45.30392183528871
8.08407033723779,1.2870018275935569,0.8395371349470224,0.3631397193710603,7.942163993371651,0.3839691396028937,11.0217665086966,121.0798776780807,-1.876463532273192,13.322633526012561,50.121117709204555,46.10389226787664
8.341547180898488,1.308319421450111,0.8636648081010208,0.3744779720972554,8.20068867248483,0.3896230294506849,11.022489284863696,121.08436279061993,-2.3818293844815344,13.540955296715874,52.3564525982365,46.923092704508576
8.59831246198155,1.329359886602703,0.8882661990646739,0.3855414389442331,8.458215199178085,0.3933170814573151,11.023307647323236,121.0887908242939,-2.899017678486416,13.766596374191034,54.59189084172249,47.76043682512156
8.85223279776983,1.3496112475087383,0.9133249891165178,0.39692680452449414,8.714180863229558,0.4014133650969119,11.024232046562247,121.093176922764,-3.42713506706059,13.999086176147648,56.82740738429129,48.61529004617613
9.10254921275191,1.3688979598849857,0.9388244313595351,0.40834072308123337,8.967964668525383,0.4088742858231238,11.025273247854784,121.09751824587039,-3.96545248554321,14.238146053933074,59.06297466531396,49.48685982821238
9.352973761968315,1.3881868715582737,0.9647482042200863,0.41968978314510097,9.220245780423284,0.41501749290004397,11.026442389702424,121.10168972367696,-4.512941520137247,14.483285742398396,61.29856184311211,50.37283444303795
9.601719303289428,1.4070611596144358,0.9910821373632643,0.4309808462849112,9.470963795902207,0.420448296804889,11.027750825625844,121.10580637905764,-5.068854137382004,14.734859090422583,63.534130254760385,51.27404209949318
9.849473494337872,1.4257068704800762,1.0178127499239054,0.4423437534651362,9.720283033559099,0.426688048164869,11.029210416483693,121.10984209150938,-5.632446860196069,14.99280074805141,65.76964207738638,52.189537027125816
10.09459899761714,1.4437130116171295,1.0449274784768932,0.4537038545453728,9.967827672837302,0.43250802795824145,11.03083334886469,121.11378444754286,-6.203212842403445,15.257131278555757,68.00505509506911,53.11859701709819
10.338946440955624,1.461551450461581,1.0724139754893258,0.46508669931229624,10.213890072656795,0.43828620023919507,11.03263216628693,121.11758828803084,-6.780509237665683,15.527740298197287,70.24032321292907,54.06008985858014
10.580595165723935,1.478743867325364,1.1002609645365737,0.4764932462545565,10.458098968025297,0.4439762675317304,11.034619684447534,121.12125324543223,-7.363947781035677,15.804721047123563,72.4753951355815,55.013538811016204
10.823199713602662,1.4961987016118303,1.1284572365984786,0.4878288747546216,10.701291097095236,0.44856937622306015,11.03680907911621,121.12477784477396,-7.9528116072760895,16.088146337146497,74.7102159447968,55.978494884151594
11.061665181070566,1.5126087507838248,1.1569933774590027,0.4991417421566859,10.942523896927014,0.4530274809469319,11.039213793468662,121.12807833714048,-8.546962905093096,16.377630641651077,76.94472697004676,56.953364190024296
11.299038182245567,1.5286726979982375,1.1858590964402538,0.5104461295916204,11.182051796698943,0.4574805943439859,11.04184745636303,121.13126401609878,-9.145970722194761,16.673865478723606,79.17886282783002,57.93938043975116
11.5374642603565,1.5448742504948336,1.2150449405016843,0.5220324202712737,11.420696797547862,0.46493818998148007,11.044724227394909,121.13417731165995,-9.74923011905048,16.975904684464616,81.41255834326148,58.93390924816188
11.77317876345478,1.5602368837247287,1.2445428140053991,0.5335687684187249,11.657905269879848,0.4703520602083298,11.047858095727861,121.13694993664944,-10.356570596806705,17.284630132723084,83.64573870692402,59.9386208100082
12.008710175286978,1.5753550104380987,1.2743445425585378,0.5449588097532041,11.89404823561199,0.4736562366047434,11.05126367660705,121.13955730162536,-10.967582957586274,17.59981972547805,85.8783300742507,60.952893711217605
12.246804834110662,1.5909750887268364,1.3044427784334403,0.5563901622334879,12.130209441296756,0.4778552348837306,11.054955712868832,121.14185735084533,-11.581621441640891,17.920470867055403,88.11025380250067,61.9743454357699
12.48005118733272,1.6054012895356322,1.3348316613701172,0.567964081533007,12.364924307214096,0.4835686751728731,11.058948643971235,121.14393880801488,-12.198842964833602,18.24725230962614,90.34142200648785,63.00413243955272
12.710622461512685,1.619259742604637,1.3655037797580007,0.579540481107305,12.597819802816957,0.48847042391901296,11.06325750425458,121.14572637535878,-12.819168023765087,18.579550960673398,92.57174632512033,64.04091644552436
12.944774307310581,1.6341596644269374,1.3964517033600714,0.5912267699636004,12.830511595588177,0.49410821512765607,11.067897318629548,121.14721286683688,-13.441896062111482,18.917302543800044,94.80113177932799,65.08443464971303
13.172971321735531,1.6478878218726432,1.4276701074268203,0.6028400949468247,13.061270258855075,0.4980694752313803,11.07288312993478,121.1484304998992,-14.067346449242905,19.260716414379093,97.0294790668413,66.13506209789053
13.397836786229163,1.660998394629116,1.4591520100657362,0.6145344418491817,13.289672204758972,0.5028575238219174,11.078230416867882,121.14944060564252,-14.695540415123105,19.610181076584183,99.25668633449823,67.19365887991339
13.621111724991351,1.6738095242791684,1.4908901332237292,0.6265238644872574,13.5159434764646,0.5104147181832956,11.083955112379044,121.15001907667393,-15.326319017680362,19.963725339024823,101.48264995589852,68.25656932332362
13.849976819008589,1.6879210419218391,1.5228776611329522,0.6381569852690949,13.742396820802242,0.5120200787700415,11.090072425082326,121.15029808125716,-15.958817102946341,20.322552853062476,103.70725434087217,69.32584367825505
14.078546037431806,1.7018490925060212,1.5551108881481923,0.650031684632658,13.968885081354529,0.5173633943676792,11.096598035423085,121.15022163461528,-16.592840150697157,20.686073217501008,105.93038452602923,70.40052257395091
14.303984489757568,1.7148647064564704,1.5875856817583553,0.661854978120023,14.194455270655453,0.5212320682896955,11.103547473903745,121.14968981600038,-17.228492089081556,21.05338142969529,108.1519197691232,71.47894862891663
14.520847270265222,1.7257810358967813,1.6202972529572435,0.6737085905608377,14.416806732304394,0.5252666021886917,11.110936050885357,121.14884817345465,-17.866406271932647,21.425825314807646,110.37173204123974,72.56347011467986
14.742340911179781,1.7377825557943318,1.6532385572209023,0.6855172421084792,14.638291134499013,0.5284652214430685,11.118780204327777,121.14762610806837,-18.505827041110024,21.802595662290525,112.58969501033425,73.65291956011608
14.962425416335464,1.7495980456417293,1.6864052290911786,0.6973936580127816,14.85874276002869,0.5325158419741501,11.127095860778354,121.14586753925423,-19.146673414856195,22.18221503940929,114.80567580275238,74.74473567433665
15.18084729788825,1.7612851069925843,1.7197928218520246,0.7092563734460954,15.07796973688528,0.5360183375840033,11.13589831290301,121.14375217267396,-19.78889266704209,22.566504523790883,117.01953227445483,75.84190631932307
15.394530809018761,1.7722223157923407,1.7533968969946727,0.7211559393068215,15.294915087055415,0.53980696201799,11.145203955471516,121.14121482509074,-20.43273937376216,22.954668956134135,119.23112531192601,76.9433704873423
15.610176770016551,1.7838798802906168,1.7872121099499054,0.7331405262763693,15.510849307756871,0.5442687712469751,11.155029055080377,121.13828187701137,-21.07776715187356,23.346905119573048,121.44030982069671,78.04960153160503
15.82409245800227,1.7953327009372104,1.8212344984640367,0.7451599125938474,15.725554100703448,0.5484590369374411,11.165389950736426,121.13482382490196,-21.72393786883913,23.741858862530872,123.6469380762428,79.15847981874077
16.030927933752537,1.8052854444887938,1.8554600476636551,0.7571612343117571,15.937271720264107,0.5518696935612244,11.176302362349816,121.13090805151495,-22.371746447635815,24.14030293885406,125.85085423663259,80.27119278927323
16.243225620593876,1.816472863208547,1.8898832550621592,0.7692911836381178,16.148534548003227,0.556592969661218,11.187782854773104,121.12640544923624,-23.02037797612138,24.540916237209657,128.05190175026655,81.38563961144274
16.453896017745137,1.827243101949101,1.9245010517188348,0.781478216547623,16.358988624997437,0.5611134507635072,11.199846939183772,121.12147086253765,-23.669801899930462,24.945409531862325,130.24991591833532,82.50450357029302
16.661852287128568,1.837378137969312,1.9593101812643,0.7936076556239433,16.56806016014889,0.5641556819250325,11.212511227466166,121.11596983360681,-24.320092941867188,25.352257300348196,132.44473459757864,83.62558461574292
16.866627167910337,1.8468187461215875,1.9943070082226768,0.8058443982761304,16.775207315571606,0.5684110231822183,11.225791609613225,121.1099180818005,-24.971358768176287,25.761719145760953,134.63618768937886,84.749238108211
17.06934374338016,1.8558613937536863,2.0294874437968247,0.8182074941204476,16.980387945193797,0.5734787455869591,11.239704304258339,121.10331633234149,-25.62357733491808,26.173832403647157,136.82410282082856,85.87556918607287
17.27451974945143,1.865552005789346,2.0648474972113036,0.8303334999342593,17.184927985537797,0.5745585291334715,11.254265659139492,121.09620405205425,-26.276270284317434,26.589013103877345,139.008304733783,87.00534308876439
17.474977941717952,1.8743470656195906,2.100384573393967,0.842675440707817,17.387602214235812,0.5790993595802308,11.269492106279358,121.08843133008467,-26.929717971477658,27.005607511555436,141.18861674703658,88.13610560579903
17.680251692887396,1.8843204751603264,2.1360948902438395,0.854875466872089,17.590413421858102,0.5809995613446011,11.285399317042902,121.08011019132242,-27.583212476223707,27.425007312377847,143.36485423520207,89.26988035782048
17.8803479061462,1.8932707557909718,2.171976628189441,0.8672823385456042,17.79176542395726,0.585820918714407,11.302003473741934,121.07115435429971,-28.237108778208494,27.84622068136579,145.53683391399682,90.40529667686982
18.0786959878169,1.9019201916712876,2.208026526554022,0.8796307320324241,17.99157008389011,0.5888428076003829,11.319320434355177,121.06163903058332,-28.891376244835556,28.27015528262053,147.7043673004955,91.54375268358302
18.27570774545893,1.9103372118248896,2.2442414694814943,0.8920896984348788,18.18988907383755,0.5930218477893284,11.337366712046787,121.05143737543872,-29.545938764698803,28.69536532778435,149.86726627126336,92.68319148064322
18.468707563355565,1.9179424486843324,2.280618393793702,0.9045791606946144,18.385963120963424,0.596780807076673,11.35615788178984,121.04062389604806,-30.200988036580384,29.122839819615375,152.02533615007997,93.82501263972642
18.667224335018545,1.9268525732576032,2.317153747950215,0.9170360974270771,18.582119405735284,0.5995349864000992,11.375710397493094,121.02910466566709,-30.85573609964922,29.551535592824774,154.17838296480477,94.96773104529535
18.85840617166832,1.934403559197711,2.3538459418341517,0.92941751884618,18.77613140596077,0.6012467124822497,11.396039486629888,121.01694217004794,-31.510751385241747,29.98229727515503,156.32620748504996,96.11254178699717
19.05664525507018,1.9437497899281175,2.3906916638370603,0.9422015800941707,18.970758226234466,0.608333297890638,11.41716143116355,121.00398000685956,-32.16509847063571,30.413393616145854,158.46861121430993,97.2568972795228
19.252171551343054,1.9528984730365524,2.427689680363983,0.9548885858270236,19.1650007548742,0.6119155503447619,11.439090622705407,120.99028696458983,-32.818904735613614,30.845881979600684,160.60538855195045,98.40211544570992
19.43473202176392,1.9597239573101366,2.4648382272571325,0.9675910342162108,19.35508328070864,0.6151562718038669,11.461842298856936,120.97592363322438,-33.47330205515027,31.280506248440474,162.73633532971144,99.54936043957733
19.62341604521498,1.9681911584708023,2.5021326158894226,0.9802662135099625,19.544089761096984,0.6176572361718062,11.485433179186657,120.96073054863693,-34.12739221053198,31.715419776360946,164.86124870553613,100.69604075987567
19.809314584359527,1.9763258073490788,2.5395706235431135,0.992951152631689,19.731506336014718,0.6202344657268074,11.509877952863462,120.94474854442034,-34.781249767169356,32.1513463550984,166.97991902194917,101.84300444694364
19.990520518738776,1.983628239832383,2.5771496740635484,1.0055658275480164,19.916401233058423,0.6218237269689163,11.535191912320442,120.92814610470947,-35.43512433441356,32.59028199536722,169.09213739447296,102.99326409578016
20.171231427695602,1.990875068200672,2.614866583549883,1.0184491126921031,20.099381489679217,0.627148444089103,11.561392140691169,120.91076899188195,-36.08881264878437,33.03021252840458,171.19770012237132,104.14430161590313
20.35395648283884,1.9985204098483385,2.6527185824816115,1.0312262389503775,20.281625194009393,0.6296063614012972,11.58849404938519,120.8926415560788,-36.74187287641689,33.47152747395919,173.29639750532806,105.29666829960583
20.538693563081324,2.0066022025423536,2.690703975909855,1.0439976818334953,20.46395606501028,0.6318972878461385,11.616513001266867,120.87356426699421,-37.39389938209206,33.91199939260615,175.38802013918757,106.44710097823773
20.7270130882971,2.0155068180147717,2.7288216354209,1.0567845830578175,20.64742195699364,0.6343652844724823,11.645462204236537,120.85363776382857,-38.04436185862869,34.35320933091461,177.47235175594687,107.59747014281614
20.904867727309465,2.0223898074062725,2.7670711958780885,1.069616509771271,20.828542248811573,0.6372992458653659,11.67535560845863,120.83282421429419,-38.69417927460745,34.79483004663792,179.5491800159216,108.7472670670438
21.07844523852691,2.0285882672802056,2.805449813255109,1.0824276009962985,21.00673688435927,0.6396049970586287,11.706207694602199,120.81129173347155,-39.34355164272711,35.23893181987759,181.61829207092524,109.89948226657705
21.255291774403304,2.035697441049996,2.843954325944651,1.0949829237129582,21.183863662648946,0.6385588371277177,11.738034846959636,120.7888110724218,-39.99189600767568,35.682658343306116,183.67948142625391,111.05035521288285
21.429349928162992,2.042416565038942,2.8825829933048226,1.1075596063244861,21.359405626077205,0.6393581525646239,11.770850527100265,120.7655923441747,-40.63928536651656,36.12870860260421,185.73253410309553,112.20357825456199
21.6063551469706,2.0498302351419473,2.921333644830156,1.1204218318370476,21.53472188813612,0.6444613441966476,11.80467053281609,120.74140747875359,-41.28520350204781,36.57425004579163,187.77724419534206,113.35541821197478
21.777007270604372,2.055957515088928,2.9602050387184136,1.133261519491096,21.70797413541004,0.6477274660107328,11.839507704600692,120.71634692776531,-41.930107791908085,37.020633136356395,189.81339899078012,114.5075386679365
21.946047828998417,2.0616760269545034,2.999194826290477,1.1461360293612604,21.879297712352127,0.6508144761642631,11.875376459560357,120.69035194170316,-42.573927372694016,37.46722865090613,191.84079058468342,115.65908305699925
22.112408697605133,2.0667261687471994,3.0383007667260244,1.159197323004541,22.048467034939677,0.655762544949174,11.91229055437725,120.6634123878335,-43.21669715363532,37.91407766358129,193.85921052657068,116.81001899770938
22.279600703623146,2.071922389064715,3.077520473743789,1.1721915388653008,22.216377671808004,0.6583477441421596,11.950263776583597,120.6355048547766,-43.8580893012695,38.36105000385305,195.86845180392265,117.9600929489508
