coupler,coupler,$D^a [mM]$,$D^a [mM]$,$I_{islet}^a\ [pg/islet]$,$I_{islet}^a\ [pg/islet]$,$\gamma^b$,$\gamma^b$,$I_{cell}^b [pg/islet]$,$I_{cell}^b [pg/islet]$,$G^b [mM]$,$G^b [mM]$
2.696762793639209,1.0730048205154203,0.5037754067016067,0.07110980274449238,2.2566003418178298,0.1430047045139668,11.004381649428979,120.98938835071085,2.560626089310972,8.833761105190046,5.436810191196855,35.35625921835749
2.9783703784341924,0.9652048359494774,0.5093048470007489,0.10044336705227601,2.5156075087725185,0.1977508825138268,11.00395475293044,120.99385383580235,2.914682694885414,3.6710834464333044,7.6724242941709235,35.559385915327304
3.2582498947158456,0.925651765543086,0.5164231734670466,0.12309923566233219,2.7765628566849045,0.2380998731750694,11.002781213494018,120.99831567643842,3.1851030199904926,1.8181731720783683,9.90821957460139,35.80439232546183
3.536624928470701,0.914542032935534,0.5249906472017756,0.14254313579766362,3.0390802773763426,0.271474150493166,11.001506070257165,121.00288635099193,3.4211641241563484,1.3259689339999328,12.144424555473961,36.090752273188464
3.8134227318223566,0.9190632056144185,0.5348878638178576,0.15993666665862036,3.3028086845297366,0.30028780961953205,11.000231068115681,121.00743103288129,3.642528188531287,1.2443871810058307,14.381080775638111,36.41713670227511
4.090087610296905,0.9329006689566036,0.5460121198702836,0.17591186337264236,3.567579649039544,0.32590027918057674,10.998972209403291,121.01189345192535,3.8579257804667577,1.2394598689864793,16.618191468296573,36.782202349824125
4.365623693098314,0.9523242320378469,0.558274792987504,0.1906834299419798,3.8331446949159727,0.3485446554462678,10.997732466668822,121.01644466697662,4.070251529454254,1.251381258709216,18.855751008959487,37.18554360256046
4.6396248346427456,0.9749470219837941,0.5715985121350968,0.20484448155691357,4.099241874995641,0.3700878615708894,10.996513151214458,121.02101734873732,4.280419689021073,1.2637465423504652,21.093758337199688,37.625677710211036
4.910768695524894,0.9990674564296593,0.5859144271089463,0.21843634965248668,4.365505338064395,0.39032017401510855,10.99531513103284,121.0255595938849,4.488002576632425,1.274698264137527,23.332209336105734,38.101043916763885
5.180565510760061,1.0239848039092672,0.6011610212881351,0.231425741837857,4.631758636678569,0.4088276076712199,10.994139146758243,121.03004068563563,4.693735328910407,1.2846761570000038,25.57109788735397,38.61009968544809
5.450484990957193,1.0494847382358374,0.6172835565666901,0.24374813631254577,4.897991535603069,0.4251482072747624,10.99298599024769,121.03455524417642,4.898793933272827,1.2986973366372685,27.81041633989662,39.152135296332816
5.718994796741754,1.0749883385175463,0.6342334770888556,0.2561731303006201,5.164042993332259,0.442731534366068,10.99185671925079,121.03910783709227,5.102729512436781,1.314291432692806,30.050159924197942,39.72587839861246
5.9859256179770455,1.1002263054613335,0.6519660250778543,0.26849501141567944,5.429752672789618,0.46020676540462013,10.990752253565006,121.04363314350964,5.305261015018914,1.3280983126606491,32.29032386280596,40.32948647985451
6.251774207456037,1.1251552549532644,0.6704408842342673,0.2806079910335311,5.69502707652282,0.4768628419364527,10.9896733550122,121.04819701480079,5.506574149534572,1.3450198022518258,34.53090083133429,40.962177162176296
6.51723722810857,1.1498484244351632,0.689621555575286,0.29220581522085487,5.959852763800882,0.4910753687516345,10.988620947231539,121.05277046476874,5.707161329046357,1.3618169605686048,36.77188562368974,41.622403799077766
6.781154379015788,1.173973071852034,0.709475211406243,0.30374305029249277,6.224102462409064,0.5053382404410797,10.987595901591703,121.05733293861188,5.906523423676845,1.3782617173187066,39.01327157858759,42.30868951928599
7.044685694621876,1.1977520637776833,0.7299711109662894,0.31491674461697056,6.487778684590012,0.5178667458607437,10.986599000054412,121.06193715439929,6.105156919977162,1.3976266607003514,41.25505118397996,43.02029837337929
7.305347939953208,1.2205834039951482,0.7510814711858984,0.3263550477139757,6.7506360756233335,0.5321700829597468,10.985631187213585,121.06656176052434,6.301770600955933,1.4170571890073758,43.497218486852944,43.75581687816407
7.565966548398137,1.243166220687647,0.7727796148537891,0.3376068856090316,7.012737373355776,0.545358423447434,10.984693113015965,121.07110752582756,6.497543344157748,1.432203581992034,45.7397668492049,44.51300987722732
7.825490231625736,1.2652818537624766,0.7950416114472318,0.3489077643019053,7.274034449132159,0.5588176165094461,10.983785430667922,121.07561155175037,6.692316038534045,1.448845983875596,47.98268551565707,45.291111941657256
8.08407033723779,1.2870018275935569,0.8178450259147212,0.35997797968575895,7.534499885048717,0.5707949408542077,10.982908952864818,121.08025275678678,6.886116044945084,1.4750871172720723,50.22596492012963,46.091066935693576
8.341547180898488,1.308319421450111,0.8411692803201731,0.3709426456467643,7.7940935210790485,0.5821504315116549,10.98206476517953,121.08483575943879,7.078858649707399,1.4935712594910868,52.46960179740563,46.90959025139665
8.59831246198155,1.329359886602703,0.8649950443359558,0.3820022147966604,8.052819008706138,0.5940803162118519,10.981253325240687,121.08947591813892,7.270745054003783,1.5171153385047569,54.713585442863405,47.74705759303049
8.85223279776983,1.3496112475087383,0.8893041535920929,0.3930303471956968,8.310466927709058,0.6056522320509541,10.980475560179912,121.09405807264932,7.460575888399035,1.5359444355551168,56.9579091835767,48.601111689698776
9.10254921275191,1.3688979598849857,0.9140794012055267,0.4042181663953642,8.56677334732376,0.6180186168952523,10.979731825995259,121.09865410405324,7.647416135529056,1.5581027334865418,59.202562253922224,49.4717405116283
9.352973761968315,1.3881868715582737,0.9393040905997623,0.41534641676375406,8.82187251909636,0.6296327001648182,10.979022564948536,121.10337593119402,7.8331192140467465,1.5870713428515213,61.4475365979597,50.3595417583325
9.601719303289428,1.4070611596144358,0.9649629996856675,0.42640739113861625,9.075706905685365,0.6405111147009038,10.978348668897524,121.10793602408425,8.01735434611328,1.6021490018435895,63.692827641032636,51.259935455612194
9.849473494337872,1.4257068704800762,0.9910417352512013,0.4373730452654064,9.328293913276866,0.6505389251324227,10.977710164384916,121.1125593991036,8.200401884270832,1.6274121388164955,65.93842017836869,52.17513698014805
10.09459899761714,1.4437130116171295,1.0175267941085622,0.4485339691939059,9.579485857393593,0.6616533026971403,10.9771080306964,121.11721841914931,8.381391850416549,1.653142906732576,68.18430707417428,53.10405254069335
10.338946440955624,1.461551450461581,1.0444050110818353,0.45984177048220654,9.82933543738909,0.673313818324419,10.976542685762979,121.12189021353988,8.561086737317964,1.6780028124527304,70.4304801793769,54.045680366071245
10.580595165723935,1.478743867325364,1.0716641027538572,0.4709577404869493,10.077698373002931,0.6831945832210458,10.976014625746757,121.12652693106509,8.738639297895133,1.700374369880048,72.67693015839905,54.99869329332859
10.823199713602662,1.4961987016118303,1.0992924783786293,0.4822420226412705,10.324810406891629,0.6939056583769866,10.97552409232594,121.13119574847777,8.915903514600359,1.7263335027613662,74.92364603374153,55.96343141657123
11.061665181070566,1.5126087507838248,1.1272792456147727,0.49341104060627317,10.570374770322815,0.7034034794462909,10.975071936729364,121.13586197455805,9.090564231271856,1.7512244962714543,77.1706186933443,56.93881257235959
11.299038182245567,1.5286726979982375,1.155613849783549,0.5046769118547109,10.81442916044034,0.7132614362101506,10.97465831041336,121.14054579858653,9.2635235209018,1.7773045867320592,79.41783815063536,57.924583551220216
11.5374642603565,1.5448742504948336,1.1842861782351974,0.5159173991326098,11.057222510455176,0.7225666588205443,10.974283633753657,121.1452604690673,9.436429703026079,1.8045665264770432,81.66529487539083,58.92042424506777
11.77317876345478,1.5602368837247287,1.2132870333443861,0.5272255836386049,11.298602601978928,0.7320070256749752,10.973948674742132,121.14993995008795,9.60768348176498,1.8285405078466574,83.91297921538353,59.924853493054144
12.008710175286978,1.5753550104380987,1.2426073941460345,0.5383401706500676,11.538685616105795,0.7397598535183225,10.973653638502583,121.15465164056855,9.77816240186803,1.8560422023644638,86.16087934747338,60.93843119163027
12.246804834110662,1.5909750887268364,1.272238963516429,0.5495434826160757,11.777850822079927,0.7480025827927458,10.973399215028621,121.15937874227484,9.949865493457764,1.8833751321670438,88.40898561012,61.96046472765467
12.48005118733272,1.6054012895356322,1.3021741178818047,0.5608431446550756,12.015698864590377,0.7566755515467245,10.973186400253326,121.16412733182025,10.119145593373105,1.9113038508394786,90.65728695783764,62.990636234364004
12.710622461512685,1.619259742604637,1.3324050789524335,0.572179324367556,12.252087865956128,0.7652654261901238,10.973015355528332,121.16895330998061,10.285847974242643,1.9427185137349785,92.90577332954854,64.02943196037063
12.944774307310581,1.6341596644269374,1.362924275599653,0.5836364075290806,12.487515891203657,0.7743465338204376,10.972886316478252,121.17371961770837,10.45366430573631,1.9669613114808224,95.15443665161729,65.07432578073474
13.172971321735531,1.6478878218726432,1.393725009955233,0.5951165331972847,12.721477954182774,0.7831336535289797,10.972799902781844,121.17850118674289,10.618350153788924,1.99462208294143,97.40326282661408,66.12616098661866
13.397836786229163,1.660998394629116,1.4248003256507218,0.606830492985053,12.953782015945762,0.7931310314682819,10.972756171715446,121.1833120019082,10.779781962395646,2.0237574466134665,99.65224142931402,67.18483492022925
13.621111724991351,1.6738095242791684,1.4561432264454197,0.6185262609946443,13.184429726563394,0.8023417334062843,10.97275502444245,121.18815645243134,10.93895510560833,2.053503262804202,101.90136259421706,68.25010966476373
13.849976819008589,1.6879210419218391,1.4877471400541253,0.6300660783669974,13.414140646811575,0.8099190523140447,10.972796543966979,121.19299732228028,11.1005763245048,2.0813299435330888,104.15061630308628,69.32108861036805
14.078546037431806,1.7018490925060212,1.5196066059579607,0.6417356088304886,13.642973850946873,0.8181519251745931,10.972881907247938,121.19784564408486,11.262996852048673,2.109729077005615,106.39998996816576,70.39767459467194
14.303984489757568,1.7148647064564704,1.5517162786854897,0.6532740151178648,13.870699424296618,0.8250579666665486,10.97301199962385,121.2027620458421,11.423856478300877,2.1419294991817774,108.64947139658034,71.48060210904964
14.520847270265222,1.7257810358967813,1.5840708879404701,0.6649101444341871,14.096565899439156,0.8324830855253584,10.973187238094397,121.20755153928727,11.578944386448711,2.1635236054672844,110.89905111677945,72.56639610865356
14.742340911179781,1.7377825557943318,1.6166644483455457,0.676545949894549,14.321217957418412,0.8396121397325921,10.973406120669097,121.21241206688228,11.73450033494737,2.1949875217989914,113.14871359057724,73.65812458922042
14.962425416335464,1.7495980456417293,1.649491913674865,0.6884206621130166,14.544631910510361,0.8482015076897492,10.973669880069792,121.2173429855207,11.889396498678252,2.228127234552569,115.39844906330109,74.75554994297498
15.18084729788825,1.7612851069925843,1.682548287382815,0.7001659871075765,14.766761459875852,0.8553236064196896,10.973979016533121,121.22222845472344,12.043029829161242,2.254933498919727,117.64824787341058,75.85651069979487
15.394530809018761,1.7722223157923407,1.7158288714126684,0.7121104587404382,14.987257186789066,0.8636025555171662,10.974333424819633,121.22708694707246,12.193313826108351,2.2819272204633783,119.89809608832002,76.96112386945032
15.610176770016551,1.7838798802906168,1.7493286288226955,0.7239376254023562,15.20647514006123,0.8705221322487201,10.974732724949718,121.2320746073665,12.343434626585804,2.3181007168100027,122.14798106253147,78.07185363009928
15.82409245800227,1.7953327009372104,1.7830431843176484,0.7358489320439959,15.42436634702608,0.8777776686923151,10.975177927641198,121.23695445960891,12.492451269179583,2.342078222723123,124.39789509214461,79.18447152277543
16.030927933752537,1.8052854444887938,1.8169681639410555,0.7477463258576306,15.640352066606283,0.8845799129363547,10.975668587489054,121.24195676834245,12.636777541134506,2.377616719801898,126.6478217728436,80.30275864693571
16.243225620593876,1.816472863208547,1.8510988295311108,0.7596427469327782,15.8551657195203,0.8910875960808156,10.97620449482929,121.2469745881254,12.782504701754078,2.4088028791985554,128.8977542258799,81.42470717781778
16.453896017745137,1.827243101949101,1.8854312747716904,0.7717529798412188,16.068758584093302,0.8989206905543253,10.97678634757176,121.25197206644752,12.92781567433849,2.4373827126514787,131.14768010377884,82.5495432912394
16.661852287128568,1.837378137969312,1.9199615845573135,0.783867230898191,16.28097846871242,0.9062866344791791,10.977414398803376,121.25700083618506,13.071331738028675,2.4686467572004545,133.39758595451713,83.67801780087666
16.866627167910337,1.8468187461215875,1.954685915959999,0.7961869247092471,16.49164158431813,0.914747658061764,10.978088767733425,121.26199952500623,13.212221281602979,2.496863166251892,135.64746060408652,84.80892380790081
17.06934374338016,1.8558613937536863,1.9896003002068028,0.8080580083530967,16.70069517241791,0.919257291741628,10.97880896332208,121.26705147557767,13.350825716042891,2.529469196928025,137.89729081094265,85.94358780497133
17.27451974945143,1.865552005789346,2.0247010869788937,0.8201739896710407,16.90854293620214,0.925654538106455,10.979575011064298,121.27211106782241,13.489992464659736,2.560198486000927,140.14706644415855,87.0810821227404
17.474977941717952,1.8743470656195906,2.0599848039564677,0.8322009722424479,17.1148313540034,0.931102282127152,10.980387460906059,121.2771665814412,13.626554341753945,2.5900700718854517,142.39677486754954,88.22108062690963
17.680251692887396,1.8843204751603264,2.0954479070496745,0.8445348537704174,17.320195319596678,0.9387170294990839,10.981245898641646,121.2822099120313,13.764964706264436,2.619393519994035,144.64640381000936,89.36332946630056
17.8803479061462,1.8932707557909718,2.131087351066526,0.8567196558750269,17.524207492824644,0.9446876189410268,10.982151362928562,121.28728172821953,13.901009262073785,2.651083663383661,146.89593950472772,90.50843816822342
18.0786959878169,1.9019201916712876,2.1668999879038893,0.8688595553994087,17.726825807709247,0.9500811347785921,10.983103696838953,121.2924652887559,14.035060176625848,2.6879534965731944,149.1453705895692,91.65777536153975
18.27570774545893,1.9103372118248896,2.202882668876555,0.8812245740282326,17.9280537776649,0.9570235336056654,10.984103028196841,121.29764533980132,14.167513600317761,2.7191169697699724,151.3946887049824,92.80918480674816
18.468707563355565,1.9179424486843324,2.2390322416322306,0.8935216959713661,18.127627430018038,0.9630160939420929,10.985148908686824,121.30275979346725,14.296922765672207,2.7459171400750377,153.64388110488653,93.96146985137973
18.667224335018545,1.9268525732576032,2.2753455291385762,0.9058501727885411,18.326261835638434,0.9689702245682279,10.986240454600193,121.30800224771967,14.428426529280841,2.783065656635664,155.89293341338634,95.11800515433801
18.85840617166832,1.934403559197711,2.311819978931453,0.9180905662209665,18.523315588478,0.9739794370941032,10.987379490979947,121.31317433059229,14.556369555881247,2.8107051239724767,158.14183701202273,96.2751399672801
19.05664525507018,1.9437497899281175,2.3484526270185597,0.9303264700046847,18.719650572631508,0.9788361035069221,10.98856458789669,121.31848318080232,14.68712516175583,2.8485846789302536,160.39057720638812,97.43651702677423
19.252171551343054,1.9528984730365524,2.385241232404951,0.9427210082148307,18.915065684821457,0.9848042177774248,10.989797831862234,121.32371241711134,14.817380918655545,2.8759899155678177,162.63914537616074,98.59815151901978
19.43473202176392,1.9597239573101366,2.422183399379719,0.9550186594335993,19.108354894910008,0.989723432300074,10.991078772814944,121.32896285490108,14.939660176401958,2.907488544651211,164.88752547279,99.76179442293352
19.62341604521498,1.9681911584708023,2.4592759411316365,0.9675435580102452,19.300341478083283,0.9962529720559242,10.992405269411393,121.33421338654966,15.062426185468212,2.938397471692378,167.13570725917816,100.92699790114087
19.809314584359527,1.9763258073490788,2.4965162784210406,0.9802024241787725,19.490875992923975,1.0033785536209836,10.99377783446107,121.33946802133171,15.183719003107399,2.969511799274893,169.38367807678878,102.09376559495917
19.990520518738776,1.983628239832383,2.533901819901075,0.9925662027380157,19.67963320063427,1.007691452644855,10.995196336065419,121.34483819457593,15.30161060160026,3.0069196565431247,171.63142570480704,103.26405032108089
20.171231427695602,1.990875068200672,2.5714299226528965,1.0050540236536407,19.86673966376111,1.0129147195541164,10.996660356293432,121.35018573995448,15.417848536046222,3.0376416578480328,173.87894256040454,104.43527090304448
20.35395648283884,1.9985204098483385,2.609097958134953,1.0178289824902327,20.052560831885785,1.0201320723654566,10.998169167898595,121.35556533394923,15.534637455595657,3.070396062867458,176.12621582672,105.608365833941
20.538693563081324,2.0066022025423536,2.646903588087298,1.030436390494036,20.237425711471587,1.025466121015819,10.999723467510194,121.36104569762853,15.652858193498105,3.1073314064628095,178.3732340540737,106.78452357570565
20.7270130882971,2.0155068180147717,2.684844912320841,1.042894060320387,20.421786913648248,1.0293907837426068,11.001324445591308,121.36644041056185,15.773805503966287,3.1347353972944076,180.61998804844916,107.96027548337389
20.904867727309465,2.0223898074062725,2.722920380474534,1.0554255551324043,20.604647127445787,1.0338874680399266,11.002972783637233,121.37185337267339,15.8895690694917,3.1664492724871622,182.86646101810038,109.13747505123544
21.07844523852691,2.0285882672802056,2.7611276867683046,1.0681595510075352,20.785727929789573,1.0398437782345382,11.004667210043408,121.37731859843157,16.000697707990184,3.2006876780341806,185.1126420851797,110.31669624307169
21.255291774403304,2.035697441049996,2.79946434404701,1.080914038174393,20.965533598791808,1.045569625377809,11.006406491273083,121.38279618928425,16.11193882697262,3.2331342537891787,187.358521733433,111.49715736295217
21.429349928162992,2.042416565038942,2.837928336171899,1.0937397776458029,21.143912081141025,1.0514975228642494,11.00819085643161,121.38832698291142,16.221557115437463,3.267577547503045,189.60408803634346,112.679558907993
21.6063551469706,2.0498302351419473,2.8765175677253865,1.1065158368234158,21.32130020437762,1.0566420578579805,11.010020149522461,121.39378959615735,16.332299933303148,3.295780745666164,191.84933109208941,113.8616215167676
21.777007270604372,2.055957515088928,2.9152303255395964,1.1190495051487757,21.497160996310413,1.059633338756478,11.011894635972567,121.39921710677643,16.439686286496,3.3248610195457102,194.09423569589853,115.04391868840752
21.946047828998417,2.0616760269545034,2.9540646050008945,1.131972458144145,21.67148509575054,1.065798605560472,11.01381338131614,121.40472638789586,16.544768972555175,3.360394198698913,196.3387891203165,116.22856913182787
22.112408697605133,2.0667261687471994,2.993018258246593,1.1446399802393747,21.84415827365592,1.069496672853241,11.015776286600158,121.4103095707141,16.64732845243998,3.3965216370240197,198.58298293687403,117.41537886757091
22.279600703623146,2.071922389064715,3.032089289452415,1.157704790613339,22.01542790653184,1.0762951156567613,11.017782689421438,121.41580033334515,16.749383561313152,3.423851614071572,200.82680836692452,118.60123273999511
