coupler,coupler,$D^a [mM]$,$D^a [mM]$,$I_{islet}^a\ [pg/islet]$,$I_{islet}^a\ [pg/islet]$,$\gamma^b$,$\gamma^b$,$I_{cell}^b [pg/islet]$,$I_{cell}^b [pg/islet]$,$G^b [mM]$,$G^b [mM]$
2.696762793639209,1.0730048205154203,0.5037754067016067,0.07131319242416759,2.354414219793398,0.14296226224403485,11.004381649428979,120.98946029755767,2.560626089310972,8.83394026740858,5.436810191196855,35.35633084089762
2.9783703784341924,0.9652048359494774,0.5099340170127107,0.10072543106535077,2.6869134316802956,0.18346978762267221,11.003954790416174,120.99397599311837,2.9146826949727256,3.671537709517548,7.672426896984689,35.55954188486813
3.2582498947158456,0.925651765543086,0.5180365944834193,0.12353338273567414,3.0035059945075773,0.20843381546497847,11.002781291725114,120.99847191411895,3.1851029748213477,1.8189219078991499,9.908226587926038,35.80462817189773
3.536624928470701,0.914542032935534,0.527783258803538,0.14287605783032697,3.3084737033350393,0.22621146255712446,11.001506178290583,121.00297762354764,3.4211639830609784,1.3244195095169522,12.144437200971879,36.090790995588755
3.8134227318223566,0.9190632056144185,0.5389593498694012,0.16008857499887771,3.6047980337170884,0.2403814838119287,11.000231126090512,121.00756250725156,3.6425279097165912,1.245341156416121,14.381096696481109,36.417323220722196
4.090087610296905,0.9329006689566036,0.5514041028072825,0.17608416390823747,3.895003662793897,0.2536061921574949,10.998972294968553,121.01209760515005,3.8579253903008066,1.2419632970405932,16.618212135974318,36.78270054816805
4.365623693098314,0.9523242320378469,0.5649940332223196,0.19114361955003534,4.180562421795912,0.2657748053942958,10.997732625575736,121.01659358211697,4.070251011289656,1.2499103898150414,18.855779046658427,37.1857661558958
4.6396248346427456,0.9749470219837941,0.579630438805907,0.2052738393185456,4.462385257240385,0.275930939253007,10.99651326437015,121.02118768577414,4.280418990994804,1.2642792251481803,21.093791725113988,37.626017023149736
4.910768695524894,0.9990674564296593,0.5952320334326942,0.21886376199252236,4.74071510520298,0.2859821571323902,10.995315259322524,121.02575316010885,4.488001713412814,1.2756474635844395,23.332248870283365,38.10152195216875
5.180565510760061,1.0239848039092672,0.6117286598891951,0.23196138808033867,5.016176809440367,0.2953494182445014,10.994139302521944,121.0302629326095,4.693734290718567,1.285937488631474,25.57114439783618,38.610763817378434
5.450484990957193,1.0494847382358374,0.6290607851551613,0.24496072583828352,5.289650106453337,0.30616055959618976,10.99298618210014,121.03481246441125,4.898792702762876,1.3002988475041535,27.810470858588815,39.1530435585541
5.718994796741754,1.0749883385175463,0.6471778392296983,0.25752441847601937,5.561292421887629,0.31495200592579137,10.991856960928999,121.03932175070221,5.102728065801784,1.3127819435478518,30.05022371560335,39.72644188590805
5.9859256179770455,1.1002263054613335,0.6660356199281523,0.26974749635625767,5.831164113013074,0.3227895990624029,10.990752445766702,121.04387639404042,5.30525931797456,1.3291149108311948,32.2903953413479,40.330284334471195
6.251774207456037,1.1251552549532644,0.6855943631235277,0.2817666604065617,6.099457396543585,0.33063848207806207,10.989673579577357,121.04845795857622,5.5065722175640985,1.3459640702571611,34.530981071293354,40.96311862747893
6.51723722810857,1.1498484244351632,0.7058184491179418,0.2936282393125075,6.3665166774299,0.33844749357563564,10.988621201366186,121.05302134845816,5.707159150799271,1.3615359060463035,36.771975265815854,41.62324091974059
6.781154379015788,1.173973071852034,0.7266763118532253,0.3054189895759873,6.63223570282571,0.34658905147202,10.987596147693694,121.05749615213503,5.906520983786322,1.3742303734940433,39.01337025128305,42.30867623069983
7.044685694621876,1.1977520637776833,0.7481388261949178,0.3171077421485626,6.896888795541599,0.35437928242127525,10.98659911332652,121.06202131859781,6.105154216988012,1.3933141444041441,41.25515571795404,43.0194977786824
7.305347939953208,1.2205834039951482,0.7701799490168924,0.32868610507470036,7.159923618892208,0.36167098828535515,10.985631159855984,121.06659304533333,6.301767691853456,1.4138599197853503,43.49732605274767,43.75448237328695
7.565966548398137,1.243166220687647,0.7927745612105355,0.340020889563473,7.421801713528112,0.3673201620564298,10.984692976111546,121.07116408019192,6.497540298150852,1.432906065856141,45.739875574596226,44.511972049974155
7.825490231625736,1.2652818537624766,0.8159005138149951,0.35164102007827974,7.682531255763024,0.3764941633236692,10.983785317861475,121.07572002749538,6.692312918021344,1.4514995497544279,47.98279634024948,45.29067183034707
8.08407033723779,1.2870018275935569,0.8395367964112666,0.3629877192992889,7.942164035746828,0.38239641373414207,10.982908931560814,121.08032097798949,6.886112855980173,1.4734738589725704,50.226079718675464,46.09017462902198
8.341547180898488,1.308319421450111,0.8636646106897388,0.3742645631672134,8.200688649201766,0.3882629107485124,10.98206468776334,121.08493102047152,7.078855364583433,1.4946737182283174,52.46971905976534,46.90903469327804
8.59831246198155,1.329359886602703,0.8882661177485716,0.38572023967236535,8.458215102320537,0.39624047202661977,10.9812532850774,121.08950989422576,7.270741686923429,1.5141178254518333,54.71370618324727,47.745771297300514
8.85223279776983,1.3496112475087383,0.9133246692654211,0.39727410337625974,8.714180868351832,0.40444641031832473,10.980475413030945,121.09409762225256,7.460572426673025,1.5357414835947107,56.958031164482236,48.59991906272922
9.10254921275191,1.3688979598849857,0.9388238739629742,0.40875265188943327,8.967964820563793,0.411042016160857,10.979731670347974,121.09874846725108,7.647412618040107,1.5609381450001198,59.2026857053861,49.47126675500475
9.352973761968315,1.3881868715582737,0.9647474841331132,0.42002829931392927,9.220246073557064,0.4154645735916919,10.979022515704855,121.10334860461333,7.833115646615624,1.5810193658434872,61.447663528844714,50.35750050257048
9.601719303289428,1.4070611596144358,0.9910813854949083,0.43130201616321767,9.470964164240286,0.4205820377368822,10.978348389849998,121.10800839348214,8.017350693815388,1.606533103556732,63.69295359030366,51.259250011328966
9.849473494337872,1.4257068704800762,1.0178119896736462,0.4425032199681367,9.72028344986029,0.4252298532746706,10.977710051229224,121.11259038980084,8.200398221379146,1.625828059095411,65.93854883499444,52.17390824855748
10.09459899761714,1.4437130116171295,1.0449268161028158,0.453884528358011,9.967828052816913,0.4320575758012543,10.977107852697372,121.11725175671715,8.38138813409023,1.6529970106477163,68.18443689215928,53.10287926015494
10.338946440955624,1.461551450461581,1.0724133425974287,0.4653565643180332,10.213890434009954,0.4390168657898831,10.976542502059601,121.12192564618933,8.561082976637408,1.678069186236555,70.43061125464737,54.04455849154229
10.580595165723935,1.478743867325364,1.100260286795674,0.4767069782112681,10.458099365932867,0.44382285106786196,10.976014445070177,121.12653152275858,8.738635497866198,1.6986445463458923,72.67706257477403,54.99715681456565
10.823199713602662,1.4961987016118303,1.1284565684909467,0.48778174271437585,10.701291494769976,0.44584194677007566,10.975523841450922,121.13116111426423,8.915899678133428,1.723838135889677,74.92377865035087,55.961360887285956
11.061665181070566,1.5126087507838248,1.1569928669196088,0.4989945102596397,10.942524160491303,0.4506459806840593,10.975071581080556,121.13582543697115,9.090560377575457,1.7506858911807963,77.17075012717396,56.936751366564145
11.299038182245567,1.5286726979982375,1.185858718905365,0.5104799732108479,11.182051913114265,0.45820434344283,10.97465793066658,121.14058503668912,9.263519677799195,1.781449242519727,79.4179683579132,57.92367319937334
11.5374642603565,1.5448742504948336,1.2150445242004935,0.5219564722339534,11.420696903252974,0.46413271456299193,10.974283425835893,121.14538778934711,9.43642588565126,1.810168714900714,81.66542660444975,58.92084151297917
11.77317876345478,1.5602368837247287,1.244542440137593,0.533449766827649,11.657905312953517,0.4694852450458624,10.973948705941439,121.15006766462425,9.607679651817307,1.829435827564773,83.91311561781913,59.925271659743686
12.008710175286978,1.5753550104380987,1.274344212579308,0.5448984274463883,11.894048204645514,0.47383979242509194,10.97365370800253,121.15476832340633,9.778158483444713,1.8555534916526566,86.16102038044482,60.93867668618681
12.246804834110662,1.5909750887268364,1.3044424395193346,0.5566399580131809,12.130209390772507,0.48128998573472564,10.973399264155887,121.1594775862438,9.949861456872895,1.8822794342324614,88.40913087595254,61.96043426993298
12.48005118733272,1.6054012895356322,1.3348311574372929,0.5682562471893772,12.36492442083545,0.4857514715974129,10.97318639990408,121.16422008317602,10.119141436181962,1.9107830873343195,90.65743580367416,62.99051379694583
12.710622461512685,1.619259742604637,1.3655031738744583,0.579853106268042,12.59782006405294,0.48981912455621984,10.973015330499038,121.16901154604767,10.285843706922606,1.9406496677475988,92.9059255477041,64.02877381089104
12.944774307310581,1.6341596644269374,1.396451036533108,0.5916376541768679,12.830511979293078,0.4959131706300795,10.97288619237952,121.17377874908051,10.453659935621545,1.9666787575339835,95.15459102205932,65.07369414057781
13.172971321735531,1.6478878218726432,1.4276693604770117,0.6033290793380064,13.061270793434232,0.4999029889833405,10.972799766110256,121.17857262270353,10.618345705443062,1.995277540190206,97.40341936796904,66.12573674999354
13.397836786229163,1.660998394629116,1.4591511846811045,0.6151357942606799,13.289672896731645,0.5051064342792785,10.972756066475995,121.18343368048681,10.779777442105114,2.0267583516118055,99.65240062121302,67.18522367566713
13.621111724991351,1.6738095242791684,1.4908892139501404,0.6267176891405031,13.515944361221045,0.5070627751304698,10.972755064954981,121.1883405798275,10.938950512325391,2.057590979641066,101.90152623131871,68.25150140456945
13.849976819008589,1.6879210419218391,1.522876881295815,0.6386985693621129,13.742397584486753,0.5143557672339798,10.972796782967634,121.19318752946535,11.100571619928814,2.082343221176383,104.15078665874898,69.32255978223388
14.078546037431806,1.7018490925060212,1.5551100160810165,0.6503176480087274,13.968885989394039,0.5157095361840782,10.97288219537586,121.19804747894128,11.262991983792745,2.1105907914279443,106.40016717836261,70.39931555226832
14.303984489757568,1.7148647064564704,1.5875848751165904,0.6621859074678044,14.19445611257106,0.5210018216981527,10.973012327332981,121.20289256894581,11.423851428902708,2.137952431196389,108.64965588971972,71.48104809636511
14.520847270265222,1.7257810358967813,1.6202964564436115,0.6742986256037059,14.416807565838099,0.5281881459442239,10.973187359049916,121.2077828502699,11.578939136583358,2.168790130407348,110.89924029633403,72.56850445447367
14.742340911179781,1.7377825557943318,1.653237652266398,0.6860750024094161,14.638292149174958,0.5296367844028537,10.973406512639485,121.21264949017268,11.734494924545288,2.19620763211348,113.14891111850739,73.66030582952754
14.962425416335464,1.7495980456417293,1.6864042823435739,0.697953960317882,14.858743883203715,0.5332270345026279,10.973670330480672,121.21759504195418,11.889390873839147,2.2292141297727692,115.39865512028337,74.75794637854284
15.18084729788825,1.7612851069925843,1.7197918508318253,0.7098204774125869,15.077970948535949,0.5365199885250687,10.973979521775618,121.22258575486266,12.043023973354138,2.2612767177118775,117.64846299216151,75.8606435521866
15.394530809018761,1.7722223157923407,1.753395909734536,0.7217572062955186,15.294916367623955,0.540597183204665,10.974334271508269,121.22751183607137,12.193307721521705,2.2869384435099316,119.89832407236099,76.96634171108707
15.610176770016551,1.7838798802906168,1.7872110970201902,0.7337421312263456,15.510850672144443,0.5447743613896523,10.974733841838315,121.2324962887812,12.343428189633414,2.3188027817789645,122.14822429604828,78.07694611842759
15.82409245800227,1.7953327009372104,1.8212334694107994,0.7454194573400607,15.7255555302836,0.5447734783357611,10.975179080851376,121.23738098726714,12.492444438044913,2.3425838066122635,124.39815335907042,79.18957840882837
16.030927933752537,1.8052854444887938,1.8554591407300904,0.7577089293944181,15.937272942159325,0.5535446460413549,10.975669770385139,121.24234505530106,12.636770285433158,2.375593126964756,126.64809525571764,80.30714353535878
16.243225620593876,1.816472863208547,1.8898822953924537,0.7698465904218041,16.148535850457847,0.5576031564236025,10.97620556212496,121.24734474671327,12.782497008796781,2.4075443318626646,128.89804153703153,81.42872365302193
16.453896017745137,1.827243101949101,1.9245000609662384,0.7820092189553818,16.35899000102654,0.5614192658978133,10.976787341292948,121.25233686141962,12.927807566244155,2.436976173875632,131.1479805689305,82.55341602155706
16.661852287128568,1.837378137969312,1.9593091824208386,0.7942087739182485,16.568061573896557,0.5652418214865106,10.977415365749039,121.25736021759724,13.0713232352864,2.468366172618287,133.39789939671755,83.6817481320792
16.866627167910337,1.8468187461215875,1.9943059777724557,0.806334237319637,16.775208821054548,0.5677158964585041,10.978089717566036,121.26233832328,13.21221239445731,2.4957206176089777,135.64778689667583,84.81225037287386
17.06934374338016,1.8558613937536863,2.0294864351162687,0.8184205750675995,16.980389427859336,0.5698982750233056,10.978809838998131,121.26737379577776,13.350816446589306,2.528423672513606,137.89762919209898,85.94658677792037
17.27451974945143,1.865552005789346,2.0648465942940675,0.8307436462097252,17.18492922419682,0.5752357754020815,10.979575821082108,121.27241375271639,13.489982835482806,2.558980229427838,140.14741627685726,87.08370208405402
17.474977941717952,1.8743470656195906,2.10038365208311,0.843058966313103,17.387603449169546,0.5791807992483933,10.98038819199428,121.2774543542993,13.626544365659356,2.589089507736419,142.39713549613953,88.22340868400232
17.680251692887396,1.8843204751603264,2.1360939681180753,0.855319146654916,17.590414638165385,0.5818402013503802,10.981246564886533,121.2825663671753,13.76495440211147,2.623244464298913,144.64677469432354,89.3668401676033
17.8803479061462,1.8932707557909718,2.171975683479104,0.8675382171033313,17.791766688693315,0.5840155648939854,10.982152264914475,121.28764022862246,13.900998647557572,2.6518806152558763,146.89632317982614,90.51194437924913
18.0786959878169,1.9019201916712876,2.2080256316112354,0.8797580644573698,17.991571213584393,0.5864314054416333,10.983104644110426,121.2927567505576,14.035049215657637,2.6843261219168286,149.14576707407832,91.6600549115783
18.27570774545893,1.9103372118248896,2.2442406403133646,0.8923019617427005,18.189889993984252,0.5929154540951607,10.98410374042578,121.29790597713601,14.167502278462052,2.7168542654634478,151.39509554579854,92.81089278913971
18.468707563355565,1.9179424486843324,2.2806175680598244,0.9046426522211188,18.385963971260935,0.5949353920863957,10.985149468062446,121.30307407151182,14.296911113895476,2.7486678842545396,153.6442972701043,93.96411506221293
18.667224335018545,1.9268525732576032,2.317152970645111,0.9170686095410087,18.582120075356215,0.598264605486037,10.986241191858426,121.30820728186664,14.428414580179378,2.7773526997075955,155.89336087927222,95.11867347405395
18.85840617166832,1.934403559197711,2.35384519782383,0.9292750777678814,18.77613192005083,0.5984577350830461,10.987379847094417,121.31341846699812,14.556357290130109,2.8120566467095793,158.14227170683444,96.27650304468187
19.05664525507018,1.9437497899281175,2.390690991014708,0.9418422516487022,18.970758459996432,0.6042700394133103,10.988565028295852,121.31872035091676,14.687112644081935,2.8484373615441076,160.39102063700557,97.43774277704594
19.252171551343054,1.9528984730365524,2.427689109055791,0.9546483189805317,19.165000583510846,0.6113575162003093,10.989798261318356,121.32395258323909,14.81736815115437,2.8761664333185477,162.63959731534123,98.59942039167963
19.43473202176392,1.9597239573101366,2.464837669103872,0.9672481255747042,19.35508293285966,0.6135688974853434,10.991079208441079,121.32925144611998,14.93964715837501,2.9102700190672834,164.8879860509187,99.763923843369
19.62341604521498,1.9681911584708023,2.50213209586218,0.9797067997539639,19.54408918507397,0.6141208289796016,10.992405891185626,121.334564407755,15.062412915052846,2.9423786621594488,167.1361782103777,100.9302325743132
19.809314584359527,1.9763258073490788,2.5395701873931102,0.9926033438872827,19.731505368836224,0.621067948618777,10.99377873330377,121.33986392327546,15.183705450966954,2.9727117999874575,169.38416158407927,102.09777840909504
19.990520518738776,1.983628239832383,2.5771492169005796,1.0055698407903118,19.916400203946978,0.626577027351405,10.995197456795722,121.34516198167748,15.301596717210487,3.003482330729008,171.6319233570248,103.26671632425509
20.171231427695602,1.990875068200672,2.614866015210282,1.0182212248619769,20.09938077768311,0.6265559769529181,10.996661224169657,121.35047345870747,15.417834269348532,3.0351663945971703,173.87945167161524,104.43725695379565
20.35395648283884,1.9985204098483385,2.6527180271805264,1.0309130311488572,20.28162446571514,0.6282054883247539,10.99816984962672,121.35581516379632,15.534622837556526,3.0679650433459935,176.12673508748412,105.60964548861381
20.538693563081324,2.0066022025423536,2.6907034507603385,1.0438590314740062,20.463955224025995,0.6333676109244942,10.999723966000602,121.36116112584267,15.652843253454193,3.09956856500324,178.37376219406724,106.78334702938592
20.7270130882971,2.0155068180147717,2.728821076627355,1.0568567364310772,20.64742123009637,0.6377235182334773,11.00132436689455,121.36656256548433,15.773790281265974,3.133886703394368,180.62052022852004,107.95923809234105
20.904867727309465,2.0223898074062725,2.7670705621130764,1.0694855510364425,20.828541834373027,0.6363718857677544,11.002972636953928,121.37201880503535,15.889553664252162,3.168680579219252,182.8669976759702,109.13724275524847
21.07844523852691,2.0285882672802056,2.805449199397117,1.082247170829962,21.00673646433279,0.6385012208840809,11.004667225875892,121.37747289764191,16.000682157929987,3.200419524095354,185.11318476311862,110.31626664723734
21.255291774403304,2.035697441049996,2.8439537358935922,1.0948661958403394,21.18386318301782,0.6388082508942097,11.006406482192688,121.3829981922107,16.111923105781898,3.2356843334312186,187.35907002538443,111.49760967343232
21.429349928162992,2.042416565038942,2.8825823976658285,1.1079183714489216,21.359405164141208,0.6455686088570946,11.008191038505174,121.38851942285072,16.221541229402646,3.2674599206452775,189.6046437062323,112.6798349860253
21.6063551469706,2.0498302351419473,2.921332919795532,1.1206523011188891,21.53472198313102,0.6458930566903364,11.010020316345617,121.39395210771285,16.3322838509921,3.2941411358355634,191.84989366680384,113.86134899737068
21.777007270604372,2.055957515088928,2.960204283648636,1.1335004843865266,21.70797449303791,0.6485690718735564,11.011894666822627,121.3995428496183,16.43967000488192,3.333430515716571,194.09480409696698,115.04665416769427
21.946047828998417,2.0616760269545034,2.999194054689724,1.1465392340947076,21.879298260901123,0.6533768091309223,11.013814084464684,121.40512059200061,16.5447525086347,3.365468639779493,196.33936933800578,116.23254130097928
22.112408697605133,2.0667261687471994,3.0382999443099834,1.159313971969591,22.048467910382897,0.6533697793367094,11.01577738870401,121.4106923779196,16.64731170772575,3.396777450586965,198.5835772268474,117.41910517236659
22.279600703623146,2.071922389064715,3.077519698825199,1.1723209601735964,22.216378437820822,0.6573637896559419,11.017783807357773,121.41625532843008,16.74936646549031,3.4278395023395545,200.82741618715227,118.60625834082022
