coupler,coupler,$D^a [mM]$,$D^a [mM]$,$I_{islet}^a\ [pg/islet]$,$I_{islet}^a\ [pg/islet]$,$\gamma^b$,$\gamma^b$,$I_{cell}^b [pg/islet]$,$I_{cell}^b [pg/islet]$,$G^b [mM]$,$G^b [mM]$
2.696762793639209,1.0730048205154203,0.5037754067016067,0.07086967008378078,2.403321157908067,0.14189418824785974,11.004381649428979,120.98938113405707,2.4925577373360284,13.241174042585643,5.436810191196855,35.356252034227744
2.9783703784341924,0.9652048359494774,0.5102391747495858,0.10052887947508536,2.7578942738473415,0.17747572075551868,11.005110717960633,120.99395997655962,2.841997841547709,8.087240441158363,7.672442847455386,35.55966091363623
3.2582498947158456,0.925651765543086,0.5187307277956279,0.123080287343029,3.0824812289793044,0.19645463434740673,11.00455133174546,120.99850114184751,3.104915507545229,5.148247883459046,9.90794401569292,35.804998726857306
3.536624928470701,0.914542032935534,0.5288663178944262,0.14239695242448433,3.3884399139788,0.210647792771558,11.00354677985888,121.0030382526004,3.315324351831805,3.5915384856241084,12.143690731725655,36.09145242270377
3.8134227318223566,0.9190632056144185,0.5404011459177127,0.15996822185490012,3.682562650879845,0.22367298037778632,11.002396111842245,121.00749862129965,3.4935915959067643,2.8693610720707152,14.37981992738787,36.41776378493886
4.090087610296905,0.9329006689566036,0.5531667379109422,0.17618622159914424,3.9695068361470476,0.23492538697742796,11.001204285421409,121.0119327257642,3.6525110036018305,2.5878025050919384,16.616378039121628,36.78297165846657
4.365623693098314,0.9523242320378469,0.5670419661764754,0.19121311076894235,4.251671470934525,0.24398487378211622,11.000007679569535,121.01649993127475,3.7993590267724358,2.4996585673119034,18.853380925487727,37.18666745762645
4.6396248346427456,0.9749470219837941,0.5819330213853391,0.20565165023157977,4.530335581046529,0.2538756641815053,10.998818773776293,121.02097269475546,3.938338576059323,2.4792179209143588,21.090838193660602,37.62652486693331
4.910768695524894,0.9990674564296593,0.5977628784894478,0.21925833003377032,4.805739353178069,0.26131701385460177,10.99764147726819,121.02541815319714,4.071442180604208,2.482373209747732,23.32874660869129,38.10157169545171
5.180565510760061,1.0239848039092672,0.6144657582190121,0.23232903674327626,5.078632280114107,0.2685647228617278,10.996477078879252,121.03003623314686,4.200469528790563,2.496733924545391,25.567103737965226,38.61179826942899
5.450484990957193,1.0494847382358374,0.6319856006593909,0.24516777312712706,5.350053138099611,0.2770211960220067,10.995326257660054,121.03449201064731,4.327088378719054,2.50923314860454,27.805913543328643,39.15363581121505
5.718994796741754,1.0749883385175463,0.6502753022505203,0.25743162664754793,5.6200132969534025,0.28271590205424446,10.99418905901257,121.03898778050507,4.451686342654284,2.525454608132046,30.045167189091444,39.72714250560488
5.9859256179770455,1.1002263054613335,0.6692932196747279,0.26973043902369437,5.888452610350214,0.2914545086972138,10.99306587409228,121.04350617402372,4.574428495892789,2.5437522929241343,32.284863045439124,40.33086899267828
6.251774207456037,1.1251552549532644,0.6890009035269031,0.28201940321520275,6.155534566263668,0.30064712742070054,10.991957006393932,121.04803490113679,4.695612627489027,2.5637963848792973,34.524998710956424,40.963394386365614
6.51723722810857,1.1498484244351632,0.7093642479012487,0.29393955845893416,6.421636605169624,0.3066691893501486,10.99086275382433,121.05260700142809,4.815696140227374,2.586454450826908,36.76557116210461,41.62371390639776
6.781154379015788,1.173973071852034,0.7303534664242761,0.3057928737625892,6.6865215881261975,0.31368050662924507,10.989783510100096,121.057207567458,4.934489430161193,2.611138908457323,39.00657834671438,42.31042787836695
7.044685694621876,1.1977520637776833,0.751940300600836,0.3176657893819092,6.95051185763441,0.3215467978410037,10.988719603978097,121.06175671894195,5.052342804556247,2.636284555444928,41.248017648700625,43.02150030213273
7.305347939953208,1.2205834039951482,0.7740995097410632,0.32930517497599837,7.212808067211881,0.3271756505546254,10.987671308917925,121.06633193938828,5.168473221070599,2.6645339981104694,43.489883319009095,43.756482230318305
7.565966548398137,1.243166220687647,0.7968064653687179,0.3406869257311261,7.474061165703461,0.33139327041859706,10.986638949019834,121.07091167536568,5.2835411775740795,2.6947516029488012,45.73217258602381,44.513978144944716
7.825490231625736,1.2652818537624766,0.8200396268803161,0.3521297415386505,7.7342416441533715,0.3378551897534242,10.985622861771844,121.0754871344652,5.397522528772242,2.726765865266781,47.974881620146334,45.2927567012607
8.08407033723779,1.2870018275935569,0.843778637907235,0.3636764990496441,7.9933928267564625,0.3454126380889946,10.984623360913247,121.08009115893428,5.510463429323863,2.76136396836251,50.21800616104156,46.09210185529759
8.341547180898488,1.308319421450111,0.868004748102976,0.37506982262839195,8.251477224985138,0.3506640252715194,10.983640811871737,121.08469535655662,5.622327804216184,2.7974725357006127,52.46154305944219,46.91064763077048
8.59831246198155,1.329359886602703,0.8927006651356351,0.3865403959506884,8.508629290852696,0.357224824881619,10.982675506733358,121.08935819029443,5.733250775374472,2.836548492100513,54.70548803079873,47.74810452072365
8.85223279776983,1.3496112475087383,0.917850182071561,0.3979714420518414,8.764076739083976,0.36293873501841006,10.981727844569832,121.09401958941011,5.842460171785206,2.8764884244774147,56.9498387882486,48.60279876095554
9.10254921275191,1.3688979598849857,0.943436960777035,0.40918936792412075,9.017052876995876,0.36633999465752903,10.980797974625602,121.09875356359994,5.949189158971421,2.9194250697384296,59.194590979255736,49.474763995589846
9.352973761968315,1.3881868715582737,0.9694445235363673,0.4205093574767471,9.268582740798593,0.3720520630661856,10.979886080371216,121.10344699582527,6.054462573374622,2.9619369221564296,61.43974307272583,50.3616976361957
9.601719303289428,1.4070611596144358,0.9958587499859277,0.4320275399980238,9.518566924380139,0.37956922141782984,10.978992235148326,121.10819341293039,6.158180499915034,3.007342139809125,63.685289145447314,51.26400810296606
9.849473494337872,1.4257068704800762,1.022666226286674,0.44339225865797754,9.767221147660166,0.3838393964889187,10.978116723941639,121.11291724678905,6.2605582097312436,3.05302537905486,65.93122662138194,52.179919104300275
10.09459899761714,1.4437130116171295,1.0498549321491737,0.4548131121066339,10.014020027592778,0.3891058486378105,10.977259671431966,121.11763885633289,6.361069995095022,3.1001463340879245,68.17755005043,53.108972431497484
10.338946440955624,1.461551450461581,1.0774124728341121,0.4660598785072365,10.259388896869496,0.3920452215684156,10.976421201019548,121.12241914732923,6.460140825947747,3.1499678862066847,70.42425485234708,54.05132382331612
10.580595165723935,1.478743867325364,1.1053279257903341,0.47750395280822044,10.502814828651026,0.39821742982392366,10.975601589656435,121.12723882612194,6.557257542037405,3.201125805651021,72.67133849766105,55.00605798834218
10.823199713602662,1.4961987016118303,1.1335899103141855,0.4890302907854089,10.745452250586823,0.4042079591231378,10.974800927448086,121.13202795281826,6.653574125375599,3.251971586063715,74.91879779472947,55.971561846434575
11.061665181070566,1.5126087507838248,1.162189404363744,0.5006344444074242,10.98595602158457,0.41004114699365835,10.97401934931986,121.13678553342194,6.7477450902806595,3.3034303622975574,77.1666266862303,56.94723322774049
11.299038182245567,1.5286726979982375,1.1911160020099487,0.5121661496431865,11.224737881217152,0.4140075614732575,10.97325684048701,121.14151577219315,6.84018195210956,3.355880312544925,79.41481939982623,57.93258042357909
11.5374642603565,1.5448742504948336,1.2203604372043628,0.523548394394486,11.462903226958588,0.4162780409464527,10.972513472428545,121.14638857233999,6.931989985052496,3.4130906904280485,81.66337020881474,58.92960980834392
11.77317876345478,1.5602368837247287,1.2499152950767893,0.5352137984729415,11.699609575094655,0.42296783009632677,10.971789798582904,121.1512057918076,7.022326642647386,3.468251554764094,83.91227921843529,59.93486292823206
12.008710175286978,1.5753550104380987,1.2797721369424835,0.5468998064709573,11.935363178839907,0.4281290513875364,10.971085677854717,121.15603931599756,7.111697792308405,3.5248857686060924,86.16153941117227,60.948966880345054
12.246804834110662,1.5909750887268364,1.3099237989226822,0.558589573532217,12.171566370641813,0.4324901221505897,10.970401338883676,121.16091964541624,7.201505669625476,3.5832875798435824,88.41114627756178,61.97195497534708
12.48005118733272,1.6054012895356322,1.340365091280546,0.5700988477487413,12.406096056569368,0.4342804925184785,10.969737279461697,121.16580979139002,7.289627111982554,3.6420774209637385,90.6610959880054,63.00284353098409
12.710622461512685,1.619259742604637,1.37108855418046,0.58162632784378,12.63854769198224,0.4374423319697376,10.969093508669175,121.17073225976496,7.375657616648823,3.7020170800000387,92.91138378437608,64.04159721089948
12.944774307310581,1.6341596644269374,1.4020864079648163,0.5932516956011308,12.871181048918515,0.4420220860953763,10.968470033374615,121.17563079797812,7.461856862413697,3.7616357272590832,95.16200585197657,65.08696420815274
13.172971321735531,1.6478878218726432,1.4333537985512521,0.6050289438259977,13.101538031827658,0.44777501955590954,10.9678671133006,121.18059129664584,7.545766595401801,3.8234896867486197,97.41295570135117,66.13996317280646
13.397836786229163,1.660998394629116,1.4648832807142753,0.6166989526195252,13.32919321814552,0.45070157065876704,10.967284800834022,121.1855319981565,7.626961347530596,3.8848144200416246,99.66423051059246,67.19895912902034
13.621111724991351,1.6738095242791684,1.4966673928138334,0.6282740636351046,13.554587779566646,0.45265982960274576,10.966722814831883,121.19051938050492,7.7058823220431805,3.947793285177319,101.9158247038722,68.26471855736246
13.849976819008589,1.6879210419218391,1.528699387301458,0.6399950911306593,13.780858837999403,0.4572307217570791,10.96618113887962,121.19554844672746,7.785666661337018,4.01164727502877,104.16773496940732,69.33686959606494
14.078546037431806,1.7018490925060212,1.5609760178194847,0.6518308446184454,14.007534516043961,0.4623636636218022,10.96566026005894,121.20055396965347,7.8658423204906285,4.074854070143653,106.41995698586106,70.4140679125466
14.303984489757568,1.7148647064564704,1.5934937053825706,0.6636463098650744,14.233197798486799,0.4659838105191057,10.96516043622978,121.20559918798622,7.944992234231904,4.139561130520427,108.67248404584825,71.49709386560394
14.520847270265222,1.7257810358967813,1.6262475790572353,0.6755569165516253,14.454820506740361,0.4704961722599585,10.964681872283109,121.21057193510903,8.020088371937163,4.202810146912698,110.92531206272542,72.58384363514612
14.742340911179781,1.7377825557943318,1.6592297573224641,0.6873854569783148,14.675868519581854,0.47300134171351027,10.964223894639872,121.21557187736114,8.094596641836688,4.267930610215194,113.17843365296721,73.67575132704366
14.962425416335464,1.7495980456417293,1.6924362508580089,0.6992657361710015,14.896005410235375,0.47646079483313103,10.963786810520105,121.22066060916013,8.168180775246583,4.335299384134002,115.43184429779649,74.77362578053216
15.18084729788825,1.7612851069925843,1.7258627679548226,0.7112263587708518,15.114928093273193,0.48061522080457264,10.963370905607007,121.22578025136657,8.240537743433379,4.402579165491814,117.68554167449474,75.87627937231329
15.394530809018761,1.7722223157923407,1.759504868707154,0.7231565430520456,15.331224520225078,0.48355591253605507,10.962976166862063,121.23094100662657,8.310255488846451,4.470343570131416,119.93952143192291,76.98368599730995
15.610176770016551,1.7838798802906168,1.7933569563901983,0.7352934879897034,15.546727824490517,0.4891158256848291,10.962602352839895,121.23611657974608,8.379167214152403,4.538026485715632,122.19377991557121,78.09521183451193
15.82409245800227,1.7953327009372104,1.8274152537924238,0.7471517126922628,15.76106105139479,0.4892438520152983,10.96224952407647,121.24134112562199,8.446895853150636,4.6066553770636185,124.448312073946,79.21126198737353
16.030927933752537,1.8052854444887938,1.8616759828291833,0.7590635654341973,15.97185781178996,0.4917053145261108,10.961917765787803,121.24651559444679,8.511075319722295,4.673904850457571,126.70311423577368,80.3299683030345
16.243225620593876,1.816472863208547,1.8961330651654862,0.7711666736032604,16.182715544011444,0.49680217761874945,10.961606425931677,121.25173160922057,8.575303034274839,4.742727512421924,128.9581797067076,81.45275725465962
16.453896017745137,1.827243101949101,1.9307839049724862,0.7832089626535612,16.392957120668143,0.4995056548230948,10.961315898457542,121.2570155014072,8.638901816215366,4.812866369851082,131.21350431255996,82.5799281254651
16.661852287128568,1.837378137969312,1.965625504439231,0.7955265011758424,16.601741428952664,0.5058135257222418,10.96104641770944,121.26228503741774,8.701030738186091,4.882092963551884,133.46908490732312,83.70990530764597
16.866627167910337,1.8468187461215875,2.000654034141917,0.8077160557618304,16.808377177920192,0.5080418158655091,10.960797781590372,121.26758630026946,8.76099841890391,4.952122657522637,135.7249156013131,84.84335808634115
17.06934374338016,1.8558613937536863,2.0358653789153323,0.8198168119344406,17.012898636050522,0.509256958820669,10.960569845861755,121.27292796591078,8.818839420797303,5.022805286477879,137.98099233023822,85.98030822386886
17.27451974945143,1.865552005789346,2.07125549094053,0.8320890145578246,17.21713356813416,0.5135726305365493,10.96036243904382,121.2782241545701,8.876381675363518,5.092269741784417,140.23731136322021,87.11912647119215
17.474977941717952,1.8743470656195906,2.1068219060543925,0.84436877940737,17.419308003038168,0.5167993234637385,10.960175550193526,121.28350095616742,8.931851150584407,5.162010520017338,142.49386547505856,88.26015995467905
17.680251692887396,1.8843204751603264,2.1425608232966624,0.8567726644004099,17.6221708455123,0.5211894213285007,10.960008968249895,121.28884637905294,8.987996961455792,5.233682371292473,144.75064883194864,89.40485478476293
17.8803479061462,1.8932707557909718,2.1784707998740487,0.8692321555191633,17.82337435800582,0.5250849402317442,10.959863265161403,121.29420461247098,9.042471488122828,5.3051674402974545,147.00765803270042,90.5521081144023
18.0786959878169,1.9019201916712876,2.2145485125365667,0.8816784911248655,18.022881667595357,0.5278487575894361,10.959738256176934,121.2995947614192,9.095238022156991,5.37711307467076,149.2648882586509,91.70215906232686
18.27570774545893,1.9103372118248896,2.250790713878814,0.8940712829142419,18.220835373736918,0.5296176241484047,10.95963382103946,121.30499877783876,9.146439373493195,5.449049562023083,151.52233536727726,92.85458930928532
18.468707563355565,1.9179424486843324,2.287194355216343,0.906519313723507,18.4162508235313,0.532484097570398,10.959549810620956,121.31043038275068,9.195091098314151,5.5213943281683555,153.7799946181476,94.00955299805176
18.667224335018545,1.9268525732576032,2.3237556277308613,0.9190055915454325,18.61234895233065,0.5354867373662766,10.95948590140324,121.31587191031561,9.244414212647825,5.593706334302113,156.0378620158881,95.16664797918234
18.85840617166832,1.934403559197711,2.360473404522054,0.9314791004698902,18.805921610910445,0.5378342986666179,10.95944241876714,121.3213872973061,9.291200673789717,5.667324914497785,158.2959321178496,96.32693491694349
19.05664525507018,1.9437497899281175,2.3973440750851296,0.9440134447924184,19.00080077117309,0.540931236468698,10.959419162012637,121.3268903327099,9.339282676693983,5.739991142644212,160.55420260317624,97.4887801734165
19.252171551343054,1.9528984730365524,2.4343670722446404,0.95654444997923,19.19537775358185,0.5434172132385235,10.959416467812844,121.33241626254754,9.387051582336426,5.813114049708759,162.81266710162163,98.65274211646224
19.43473202176392,1.9597239573101366,2.4715406218892895,0.9693772286065938,19.384586085099727,0.549924805848902,10.959434515680186,121.33794637788314,9.42944115283899,5.886205461412309,165.0713207386434,99.81840805269255
19.62341604521498,1.9681911584708023,2.5088590235682204,0.9820294069062093,19.573021959979087,0.55114746760543,10.959472268936224,121.34354403273063,9.471047529950738,5.960496725572585,167.33015942759812,100.98686573590903
19.809314584359527,1.9763258073490788,2.546320400608238,0.9946299014240872,19.759879159275442,0.5522146424177815,10.95952989498619,121.3491401077676,9.5110648983391,6.034132244022216,169.58918032981455,102.15678849545887
19.990520518738776,1.983628239832383,2.5839222036884166,1.007171603246425,19.9439112492837,0.5530844347880165,10.959607107564807,121.35472755029157,9.548246983322315,6.1075402297146235,171.84837826155126,103.32798882850808
20.171231427695602,1.990875068200672,2.621661019802559,1.0197231909100408,20.12604945478961,0.5548049235872603,10.959703398635611,121.36038470340938,9.583525200374424,6.182314259081148,174.10774820670485,104.50184038549128
20.35395648283884,1.9985204098483385,2.6595341818756424,1.0321860821107298,20.30785630317405,0.5554025391991626,10.959818691131659,121.36609310595098,9.618462188635021,6.257357615749596,176.36728800274432,105.67794385779595
20.538693563081324,2.0066022025423536,2.697540258814115,1.0448398968263006,20.490268436726183,0.5595577352145318,10.959953116253018,121.37181016385816,9.653994753723964,6.331899197736413,178.62699424661696,106.85545994841566
20.7270130882971,2.0155068180147717,2.735678431519773,1.0576104242963777,20.674476280342788,0.5639621741188647,10.960106895421632,121.37749456677139,9.69131321972236,6.405700354848,180.8868617862463,108.03357740977526
20.904867727309465,2.0223898074062725,2.7739488087245263,1.0702166574399006,20.855575137306005,0.5644733060922409,10.960280489758588,121.38324388074916,9.725512998062186,6.48097762276297,183.1468834914267,109.21403583197232
21.07844523852691,2.0285882672802056,2.812348088657018,1.083063207591545,21.033097042236477,0.5693142157101483,10.96047356852796,121.38898796693596,9.756126618362032,6.555700472099968,185.4070570860058,110.39549674519411
21.255291774403304,2.035697441049996,2.850872559414711,1.0960904775164138,21.209780109114945,0.5748529138884109,10.960685373633169,121.39475600005963,9.785892122075893,6.630788143805461,187.66737790592015,111.57846023975571
21.429349928162992,2.042416565038942,2.8895205715089105,1.1089373640771185,21.384844271000475,0.5754998884340293,10.960915920324624,121.40049151398314,9.814029486034997,6.705181967920445,189.92784182168543,112.7618401863155
21.6063551469706,2.0498302351419473,2.928290072886739,1.1217257859317726,21.560115362983197,0.576074468861539,10.96116487227846,121.40635454896062,9.842365003773011,6.781981765336064,192.18844292871654,113.94855727778962
21.777007270604372,2.055957515088928,2.9671802148222923,1.1344881013126191,21.732968958560377,0.577068969477084,10.961432814132422,121.41225782099202,9.868274527718313,6.858323568869546,194.4491806216538,115.13693949084845
21.946047828998417,2.0616760269545034,3.00618836726062,1.1473193188108792,21.90372710255906,0.5795587266611989,10.961719261249527,121.41807397238554,9.892080194549635,6.9325886008581,196.7100517563522,116.32459088108419
22.112408697605133,2.0667261687471994,3.0453121546888724,1.1600914702074925,22.072155884001404,0.5807152949440724,10.962023526895791,121.42399047185107,9.913548127748072,7.009142221284381,198.97104857861996,117.5149677000376
22.279600703623146,2.071922389064715,3.0845491421059705,1.17309319513907,22.23951923614368,0.5855569881630692,10.96234559174627,121.4298722832402,9.933942537289113,7.084468415378891,201.23217041045427,118.70551969355368
