coupler,coupler,$D^a [mM]$,$D^a [mM]$,$I_{islet}^a\ [pg/islet]$,$I_{islet}^a\ [pg/islet]$,$\gamma^b$,$\gamma^b$,$I_{cell}^b [pg/islet]$,$I_{cell}^b [pg/islet]$,$G^b [mM]$,$G^b [mM]$
2.696762793639209,1.0730048205154203,0.5037754067016067,0.0700389143378283,2.5989489148487337,0.13977736453807954,11.004381649428979,120.98942803443472,2.526591913512675,11.037175078565038,5.436810191196855,35.35629872321619
2.9783703784341924,0.9652048359494774,0.5113994120183634,0.09944120799144576,2.944003877870273,0.16274500286239815,11.004474740824662,120.99391308728194,2.881743686302798,5.655811288605684,7.672435137676075,35.55950415469325
3.2582498947158456,0.925651765543086,0.5208635247836355,0.1224646711429932,3.236875588539988,0.17455026352915903,11.003519642865285,120.99845465005428,3.1503455567290075,3.142543894141712,9.908098592306487,35.80476847104017
3.536624928470701,0.914542032935534,0.5317295142594958,0.14201425757724612,3.518096574000083,0.18261591333240418,11.002320206724107,121.00292711037505,3.374921413953416,2.1249949406753683,12.14411496964749,36.09092291907038
3.8134227318223566,0.9190632056144185,0.5438276163185947,0.15980995821112615,3.795717653934844,0.1920204756961012,11.001074334839359,121.00738496614633,3.5766884004115127,1.8071549205313082,14.380561299389228,36.4170971522681
4.090087610296905,0.9329006689566036,0.5570485698845005,0.17607202771032177,4.072505436255597,0.19900046336186164,10.999830283573829,121.01189214023687,3.7669751684297808,1.735055610690289,16.617456278996542,36.782474133194526
4.365623693098314,0.9523242320378469,0.5713103946909541,0.19143764652002257,4.348217170801945,0.20705886669322465,10.998599847895093,121.01638922661574,3.9509476126986556,1.7269963678118005,18.85480450768955,37.18566820347176
4.6396248346427456,0.9749470219837941,0.5865406712546246,0.20599423567390093,4.622479883953929,0.2138998261595305,10.997386011877097,121.02086408661303,4.13098548038397,1.7332861615439827,21.092603761935607,37.62538206649474
4.910768695524894,0.9990674564296593,0.6026753113401355,0.2198341203834703,4.894161531119607,0.21973773783189612,10.996189784025773,121.02535740302986,4.30761751945829,1.7438750182942402,23.33084988500923,38.10056972964829
5.180565510760061,1.0239848039092672,0.6196544328849996,0.23335368234241843,5.164244258310646,0.2273705738288573,10.995011765160598,121.0298320654364,4.4818633096292615,1.7549721446678777,25.56953976349905,38.60969770655805
5.450484990957193,1.0494847382358374,0.6374275234411471,0.24645210074169546,5.434100645710714,0.23336256772106453,10.993852469720878,121.03442283753823,4.654967564914841,1.770687306188841,27.808668506331742,39.15238622755246
5.718994796741754,1.0749883385175463,0.6559536380955251,0.2591120793417651,5.702779618208297,0.23823803441733302,10.992712695617229,121.03898547946396,4.826786576944869,1.784561629637833,30.048235590569675,39.726291638437715
5.9859256179770455,1.1002263054613335,0.6751932927727466,0.2715602726442179,5.969955755630508,0.24437322899740677,10.991592935053632,121.04347544365278,4.997163846855983,1.7976258854178644,32.28823509812355,40.32967904291691
6.251774207456037,1.1251552549532644,0.6951097310084151,0.28381557008520547,6.235961622209288,0.25017558723808125,10.990493689663708,121.04802137445404,5.166269628738519,1.8152874714487244,34.52865939354524,40.962271332079034
6.51723722810857,1.1498484244351632,0.7156705424567917,0.29591727840313264,6.501421288121492,0.25585912165033553,10.989415697287768,121.05257290610847,5.334537552145775,1.8336171155318897,36.76950530940667,41.622339680155235
6.781154379015788,1.173973071852034,0.7368475462135393,0.30782047093385073,6.765531516633928,0.2606243288080546,10.988359570037574,121.05711382779573,5.501604344288353,1.8526084498972446,39.01076753810048,42.30844498639837
7.044685694621876,1.1977520637776833,0.7586131809366634,0.31951173689124474,7.029059853870422,0.26473158175780687,10.987325864378363,121.06169842733634,5.667868501332123,1.8744693414841544,41.25244009075686,43.01986638536155
7.305347939953208,1.2205834039951482,0.7809437037067255,0.33093294086693265,7.290173390181735,0.26769878189057544,10.986315272632055,121.06625330163024,5.832287784258369,1.895621245345672,43.49451868981123,43.75465015131491
7.565966548398137,1.243166220687647,0.8038134805392474,0.34259183610641797,7.550766020314768,0.27604056386280573,10.98532817477826,121.07084923319249,5.995753884548321,1.919818869338315,45.736996482592076,44.512361810815044
7.825490231625736,1.2652818537624766,0.8272021025477443,0.3541788706824314,7.8103757032658905,0.28092179699170666,10.98436523345299,121.07542787145205,6.158187149849255,1.9437047189811196,47.97986884228885,45.291239082504525
8.08407033723779,1.2870018275935569,0.8510903363057878,0.3658008287785187,8.069031207589433,0.2866939433557742,10.983426932129078,121.0801283707684,6.319623533519916,1.9731294493646805,50.22312882356346,46.091779220787544
8.341547180898488,1.308319421450111,0.8754600221291184,0.3770534317985726,8.326610659016296,0.28735107912820446,10.982514020637609,121.08468645714775,6.48000131349545,1.9956320730395078,52.466774427331984,46.909875050122686
8.59831246198155,1.329359886602703,0.9002943628875073,0.38867839593275577,8.583403120515868,0.2966497829209856,10.981626651249826,121.08925124620193,6.639485526946373,2.0223360727534394,54.71079383417964,47.746273405115566
8.85223279776983,1.3496112475087383,0.9255773100303486,0.39992192664175646,8.837759874761105,0.2967997881122465,10.980765509186313,121.09392104274977,6.797092254972085,2.0543234779962707,56.95518055930734,48.60124697277761
9.10254921275191,1.3688979598849857,0.9512920854322147,0.4110639853483923,9.088744021719322,0.29973363997240776,10.979931172914803,121.0985156626494,6.95195019163657,2.0818967291830313,59.19993175379932,49.47164105152575
9.352973761968315,1.3881868715582737,0.97742077455041,0.4223316354304995,9.33913794788532,0.3055308753045594,10.979123583063483,121.10313284689329,7.105479775345884,2.1125222798614476,61.44503810442984,50.35783898240676
9.601719303289428,1.4070611596144358,1.003951006947318,0.43377961916236557,9.588068567449227,0.31212001780962007,10.978343258844689,121.10775886362786,7.257497855112888,2.144052325200259,63.690493466332555,51.258850791718096
9.849473494337872,1.4257068704800762,1.0308698574954178,0.4449163434725687,9.835911467438564,0.31208293163245077,10.977590570808388,121.11242215125596,7.4082568200537935,2.1774679005256967,65.93629110697657,52.1742894237761
10.09459899761714,1.4437130116171295,1.058166046102997,0.4561959593679699,10.081431920873001,0.3176776927998648,10.976865963079035,121.11709405412725,7.557064342661761,2.2108990895880036,68.18242513854057,53.10303981313083
10.338946440955624,1.461551450461581,1.085826500406256,0.46750166434793927,10.325863609323278,0.32183042119776667,10.976169659174047,121.12179261926403,7.704499698942527,2.2455614331355433,70.42888869903982,54.04466333027232
10.580595165723935,1.478743867325364,1.1138409574923571,0.47902414786083664,10.567916811211035,0.3284880307266899,10.975502025336027,121.12644482195603,7.84989234933164,2.278353459875933,72.67567536793649,54.99747903827693
10.823199713602662,1.4961987016118303,1.1421976946876384,0.4904149553517883,10.810257305391133,0.33035478773854077,10.974863126059063,121.1311902634419,7.9947344326647,2.316391436672476,74.92277610767633,55.96286269497464
11.061665181070566,1.5126087507838248,1.1708895528281573,0.5018464857537424,11.049342352896929,0.3343196390528945,10.974253672990017,121.13582713665639,8.137224762118421,2.3486802659213515,77.17018655873835,56.93731302968404
11.299038182245567,1.5286726979982375,1.1999046536220703,0.5133248931444064,11.286900770151988,0.3383525282128313,10.973673425032757,121.14055422105116,8.277986151515506,2.387452258921983,79.4178953114897,57.923189801304325
11.5374642603565,1.5448742504948336,1.229234070982784,0.524777896506125,11.524994833627716,0.3412743870425561,10.973122916184366,121.14534843974798,8.418403027928434,2.4273999892234195,81.6658980678767,58.91963971057855
11.77317876345478,1.5602368837247287,1.2588719837076496,0.5364227195760676,11.76102531538345,0.34723520639696476,10.972602654714137,121.15019945992262,8.557285368442535,2.467714387968972,83.91418916173279,59.92602225942865
12.008710175286978,1.5753550104380987,1.28880937260692,0.5478490861158942,11.996495238505304,0.3473097765765911,10.972112856805325,121.15490669402345,8.695302528445609,2.500977740686464,86.16276273690164,60.938828913786026
12.246804834110662,1.5909750887268364,1.3190398064034525,0.5595139909477906,12.233902276493609,0.353719117319867,10.971653420710936,121.15969212558353,8.834162483923137,2.5412646161710017,88.41160539165139,61.96102355468759
12.48005118733272,1.6054012895356322,1.349559701338876,0.5710325734034962,12.467816819669679,0.35474149105952907,10.971225432353094,121.16457108921676,8.971013737143949,2.5842625708398157,90.66071135830134,62.99243396733394
12.710622461512685,1.619259742604637,1.3803595356584992,0.5825343164156584,12.698891514446586,0.3573063727172797,10.970829122001305,121.16943744780964,9.105517282267101,2.6242755694103432,92.91007586568594,64.0310144640372
12.944774307310581,1.6341596644269374,1.4114307441923302,0.5941909457699841,12.932261474896222,0.3624300454207843,10.970464288489893,121.17428219761652,9.24063153786119,2.663543004041463,95.15969035867602,65.07625648082349
13.172971321735531,1.6478878218726432,1.4427709711308125,0.6058995957021578,13.161325495224446,0.3661447216362296,10.970131485839374,121.1791073002002,9.373068202286959,2.7030523126614554,97.40954514965415,66.12784354992523
13.397836786229163,1.660998394629116,1.4743706133158412,0.6178156690496427,13.38686195621267,0.3720815126608575,10.969830604502931,121.18401497303911,9.502494975924492,2.7467507634166193,99.65963139012456,67.18708650732377
13.621111724991351,1.6738095242791684,1.5062212297634687,0.6295798520765057,13.610419443808496,0.3726160993915921,10.96956169209443,121.188875739689,9.629616415710188,2.786867888735553,101.90994412079453,68.25158743805703
13.849976819008589,1.6879210419218391,1.5383166394312866,0.6414393475810857,13.838052214123309,0.37659869939351814,10.969324425561354,121.1937517663083,9.758375255158171,2.828709264070264,104.16047337837517,69.32206610444504
14.078546037431806,1.7018490925060212,1.570657102682162,0.6533481275044869,14.066262371372432,0.38006018965115934,10.96911972516682,121.19875785138862,9.887800053460523,2.875591136396426,106.41121046245098,70.4001207830215
14.303984489757568,1.7148647064564704,1.6032392415800132,0.6652038096291445,14.292082429397851,0.3818949909344318,10.968948530731723,121.20375707907343,10.015987837687135,2.9188754658064147,108.66215091757476,71.48323159091004
14.520847270265222,1.7257810358967813,1.6360567386145703,0.6768855725269468,14.510562969371676,0.3816604360918821,10.968810748192482,121.20876703598474,10.139264766126871,2.9621932957830173,110.91328554414213,72.57144334015995
14.742340911179781,1.7377825557943318,1.669098481128458,0.6888673132524418,14.731279348488897,0.3886316569185134,10.968705630511977,121.2137525421051,10.26239738415461,3.004390213046449,113.16460680402815,73.66393961450952
14.962425416335464,1.7495980456417293,1.7023631684714928,0.7010480797759212,14.9513147957623,0.3943832906515826,10.968633467215113,121.21880641080915,10.384749129298143,3.050004817077289,115.41610474698246,74.76205304319576
15.18084729788825,1.7612851069925843,1.7358468436868861,0.7130483150898816,15.169883172027767,0.3941230349217696,10.968594718142413,121.22380103738641,10.50587520073168,3.0919414431127112,117.66777298226953,75.86342396228181
15.394530809018761,1.7722223157923407,1.7695450318278745,0.7253423010457948,15.384366606827825,0.4010341613222643,10.968589209485799,121.22884920879869,10.62401545792818,3.1373570812521026,119.91960038617253,76.96976457817298
15.610176770016551,1.7838798802906168,1.8034505571122281,0.7374582042234814,15.599602297879755,0.40074218767063263,10.968616837984882,121.23388963049189,10.741640487336554,3.1815282356443992,122.1715804822743,78.07984388608494
15.82409245800227,1.7953327009372104,1.8375614390824921,0.7499020363208818,15.81360346218571,0.4081636998347053,10.968677760567516,121.23908700980566,10.858139362884685,3.231649956768553,124.42370392754674,79.19629264265888
16.030927933752537,1.8052854444887938,1.8718735220027156,0.7621710669676476,16.02169291069731,0.4079149863936098,10.968772519030608,121.24427684756276,10.970531852333806,3.277382400186418,126.67596749030054,80.3161111638478
16.243225620593876,1.816472863208547,1.9063788303174078,0.7743640091867398,16.23296907544136,0.40876890813874406,10.9689000811195,121.24941696663365,11.08359912596643,3.3206542283395524,128.92836260423064,81.43841828295753
16.453896017745137,1.827243101949101,1.941077743715141,0.7864152365976209,16.443580099381506,0.4085694594475778,10.969060779898427,121.25454207139391,11.196187200956047,3.3647830571551247,131.18087815493345,82.5636647828446
16.661852287128568,1.837378137969312,1.9759671821957454,0.7986012625853088,16.651886134408414,0.41277847848856436,10.969254904077388,121.25969939275944,11.30717591906432,3.410997515132299,133.43350453861058,83.6925257923887
16.866627167910337,1.8468187461215875,2.0110425754683092,0.8110145990881262,16.85718548949808,0.41866745183894777,10.969482542364858,121.26495812409011,11.415771770640276,3.4603626076794454,135.68623406253755,84.8260646529956
17.06934374338016,1.8558613937536863,2.046298939269036,0.8233393802159537,17.060236339922994,0.41945623536771437,10.969743648776785,121.27008512500056,11.52213972096797,3.5022340009440396,137.93906173110008,85.96007337514861
17.27451974945143,1.865552005789346,2.0817322442890145,0.8358260488036153,17.26480446429923,0.42408714084147475,10.97003732144367,121.27539182847961,11.628621218842454,3.5535835259273196,140.19197404012084,87.0998969448376
17.474977941717952,1.8743470656195906,2.117341614095494,0.8481005684287753,17.465901331510395,0.4227351003470456,10.970364707522094,121.28059145449443,11.732798672281206,3.5971423683541093,142.4449685011059,88.24035884483455
17.680251692887396,1.8843204751603264,2.153122160292696,0.8604923512925736,17.670155830681324,0.42648686026022486,10.970724823884666,121.28586927970032,11.838230019551702,3.6455205415956815,144.69803237728775,89.38462546949975
17.8803479061462,1.8932707557909718,2.1890744591946714,0.8726819600024198,17.87089937273413,0.42514733951728734,10.971118749002926,121.29120732336452,11.941697958274744,3.69458389118757,146.9511591233313,90.53226061214855
18.0786959878169,1.9019201916712876,2.225193733640481,0.8850043488202533,18.069541709963232,0.42911589318495563,10.971546307438985,121.29658778642329,12.043308691936545,3.743300692347065,149.20434204116464,91.68284133148467
18.27570774545893,1.9103372118248896,2.2614762953598984,0.897528040186549,18.26669433573261,0.43444321471774827,10.972007242613472,121.30195960959745,12.143321369541809,3.7902554125741115,151.45757381618023,92.8353598117964
18.468707563355565,1.9179424486843324,2.297919126402121,0.909894101126593,18.46033909311518,0.4337979271377786,10.972501239855774,121.30736909848648,12.240527905058116,3.8385141980207145,153.71084532141685,93.99055107211781
18.667224335018545,1.9268525732576032,2.334517812530976,0.9224183923523809,18.657695410307497,0.43815738454711867,10.973027888685465,121.31281100630231,12.339088919223286,3.8869997746909886,155.96414950489998,95.14823140491683
18.85840617166832,1.934403559197711,2.3712735720328055,0.9348181879123493,18.849925776477903,0.4379864070233831,10.973587885964662,121.31826541649836,12.434658928890713,3.934983385482533,158.2174779996276,96.3079537978117
19.05664525507018,1.9437497899281175,2.408180817554239,0.9472501904478294,19.04677634453401,0.4401943677226546,10.974180591059849,121.32357657173331,12.532261463697068,3.9775488068402867,160.47082288376987,97.46684434686556
19.252171551343054,1.9528984730365524,2.4452415520208888,0.9595558132511921,19.242380395997316,0.4398165038292964,10.974806367536075,121.32901630007251,12.629523443756625,4.028268316005669,162.724169222638,98.62973096821477
19.43473202176392,1.9597239573101366,2.482453284494113,0.9720140729522879,19.42736210813746,0.44408230490543565,10.975466165109538,121.33437127565388,12.720132141606882,4.073751319838199,164.97751266136765,99.7926771230623
19.62341604521498,1.9681911584708023,2.5198063295683824,0.9846878822902008,19.615117914509028,0.44951848123603366,10.976157742901705,121.33990848941545,12.810475967358798,4.127098471889394,167.230842391029,100.9604553188579
19.809314584359527,1.9763258073490788,2.5573014161200263,0.9975574259426127,19.801199964247644,0.45472393901124336,10.97688204050064,121.34533317422863,12.899294859962538,4.172445621501634,169.48415634967387,102.12763793536472
19.990520518738776,1.983628239832383,2.5949359466903843,1.0103159057456987,19.983192945364863,0.454681591159338,10.977638051030226,121.3509235577891,12.985005256719887,4.225330902604268,171.73744177259505,103.29922405914454
20.171231427695602,1.990875068200672,2.632705682888627,1.0230178147529367,20.1639718352817,0.4552701423840979,10.978425809065811,121.3564650539179,13.068914460483938,4.272900492985124,173.99069668725133,104.47123435063293
20.35395648283884,1.9985204098483385,2.670608496235218,1.0358001012995603,20.346118981949985,0.4582145505627122,10.979244454414584,121.36203734464388,13.152930746786296,4.321924297074883,176.24391097202897,105.64506979988818
20.538693563081324,2.0066022025423536,2.7086441541905515,1.0485171577133803,20.530149226542562,0.45874968578075337,10.98009439080488,121.36761783227489,13.238007424399257,4.370638931995795,178.49707715585828,106.8202573101512
20.7270130882971,2.0155068180147717,2.746812867175322,1.06128124267936,20.71742181526497,0.4611352516710255,10.98097614722792,121.37327438527218,13.325406500138342,4.421618097036336,180.75018659047782,107.99797978907435
20.904867727309465,2.0223898074062725,2.7851157300756313,1.0739109023215598,20.896970792207867,0.4604503861051473,10.981890931376256,121.37890163331863,13.408735516481102,4.46977736252734,183.00323251076043,109.17624289667921
21.07844523852691,2.0285882672802056,2.823546122352127,1.086655649283709,21.07155311340466,0.4638989677985574,10.982837383053266,121.38460951609193,13.48789226775989,4.520902710339159,185.2562057916075,110.35702213894544
21.255291774403304,2.035697441049996,2.8620994053198956,1.0993801542877495,21.24775719223544,0.46509563234724516,10.983814702020027,121.39031283579635,13.5665989194531,4.570011157834482,187.5091017279774,111.53870124025818
21.429349928162992,2.042416565038942,2.900775727292057,1.1120257458276763,21.422054775990546,0.4651635868827686,10.984822731348686,121.39600180680561,13.643687969073653,4.618385950564637,189.76191178150475,112.72105597462921
21.6063551469706,2.0498302351419473,2.9395727739320137,1.1249351449712195,21.598328579682857,0.4712090731899266,10.98586107173469,121.40174662922347,13.721443571848795,4.668908756251956,192.01462721638381,113.9053394847311
21.777007270604372,2.055957515088928,2.97849082906032,1.137949097923667,21.76991511648521,0.4747421340558894,10.986930377897806,121.40752050180498,13.796357912942767,4.7191643076207255,194.26724158227444,115.09100656765752
21.946047828998417,2.0616760269545034,3.017525765753817,1.151224697263716,21.93927488150075,0.4808980773877709,10.988029889413156,121.41332385950476,13.869047994725406,4.769415695148849,196.51974808052182,116.27802554456689
22.112408697605133,2.0667261687471994,3.0566751270671375,1.1642516923928032,22.106045532040298,0.47821079970854613,10.989159063436091,121.41911106100355,13.939288397785276,4.818265793031805,198.77214006707072,117.46551361240822
22.279600703623146,2.071922389064715,3.095936431607697,1.1773272302174178,22.27296314528212,0.4803145600457143,10.990317111834884,121.42491609076076,14.008721980033442,4.867898089559538,201.0244094580412,118.65406906223917
