coupler,coupler,$D^a [mM]$,$D^a [mM]$,$I_{islet}^a\ [pg/islet]$,$I_{islet}^a\ [pg/islet]$,$\gamma^b$,$\gamma^b$,$I_{cell}^b [pg/islet]$,$I_{cell}^b [pg/islet]$,$G^b [mM]$,$G^b [mM]$
2.696762793639209,1.0730048205154203,0.5037754067016067,0.07158947419975828,2.305507280805614,0.14372243077978497,11.004381649428979,120.98926386069742,2.560626089310972,8.833451091514304,5.436810191196855,35.35613528925157
2.9783703784341924,0.9652048359494774,0.5096225004090229,0.10058573778551114,2.6061511976877227,0.18991114192106504,11.00395468750503,120.99377638064782,2.914682694536168,3.6713243907990933,7.67241978936363,35.559341159946534
3.2582498947158456,0.925651765543086,0.51726952700119,0.12321254619615317,2.9025113348616287,0.22131111816964943,11.002781170071103,120.99829589051761,3.1851030994439498,1.8192663057212848,9.908212284790352,35.80448329906282
3.536624928470701,0.914542032935534,0.526503620276344,0.14300088337973954,3.1951024489244446,0.24680701505957908,11.0015060743317,121.0028147735505,3.4211642832960933,1.3248402840109599,12.144416560069658,36.09068591864818
3.8134227318223566,0.9190632056144185,0.5371551626303699,0.16026387466484024,3.484326788922772,0.2660398738072462,11.00023103354033,121.007419690783,3.642528391093947,1.2460149867660875,14.381070188479498,36.417291387298356
4.090087610296905,0.9329006689566036,0.5490876460244181,0.1760566995547502,3.770798804354854,0.2824774064568812,10.998972222208977,121.01199687508176,3.85792604717426,1.243426536350072,16.61818048125133,36.782848856275265
4.365623693098314,0.9523242320378469,0.5621887695015175,0.19105830341034416,4.054814119474031,0.29825727234064386,10.997732596471906,121.01654153371409,4.070251828816254,1.2517954130942799,18.85574376396835,37.18615114535086
4.6396248346427456,0.9749470219837941,0.5763639673823491,0.2052177243953476,4.3365306904306635,0.31225308072187313,10.996513290214352,121.02103951754462,4.280419935530517,1.2611727866202918,21.09375456464477,37.62586654322075
4.910768695524894,0.9990674564296593,0.5915329494891921,0.21876785652545608,4.615812575328164,0.32520852659212,10.995315194129944,121.02558530148282,4.488002741301898,1.274429295586558,23.332206330029294,38.10125199365144
5.180565510760061,1.0239848039092672,0.6076254239596892,0.23174020503913687,4.8928549682023,0.3368393632412695,10.994139200425707,121.03011838446471,4.693735446489882,1.286637079216008,25.571095793507993,38.61065091998486
5.450484990957193,1.0494847382358374,0.6245804879144998,0.24435016211701785,5.168109599384479,0.348092888183472,10.992986100609414,121.03465685702066,4.898794015985914,1.2999670190320294,27.81041704537347,39.15285116816619
5.718994796741754,1.0749883385175463,0.6423454419855261,0.25681756598746996,5.441632860922255,0.359864472795487,10.991856868145987,121.03919081612102,5.102729533507954,1.3137393221432856,30.05016428232193,39.7264407851328
5.9859256179770455,1.1002263054613335,0.6608733368484536,0.26891187098552694,5.7134373063454404,0.3701926579694442,10.990752383484505,121.04368028357167,5.305260945460759,1.326506148125139,32.29033118253574,40.329746838206034
6.251774207456037,1.1251552549532644,0.6801224537048256,0.2811882885042569,5.983633363735862,0.38266437712949913,10.989673437550664,121.04823870213022,5.506573992432095,1.3445408531331537,34.53090983023867,40.96238650207634
6.51723722810857,1.1498484244351632,0.7000548634532606,0.29279237793905105,6.252449880586937,0.39077022263757577,10.98862101614941,121.05281210713714,5.707161107740831,1.361745900276864,36.77189611084759,41.62260974907054
6.781154379015788,1.173973071852034,0.720637716105557,0.30442355172631613,6.519838485866785,0.40025223853831093,10.987595968646929,121.05736383999331,5.906523151730653,1.3777657250357447,39.013283556327224,42.30878964565693
7.044685694621876,1.1977520637776833,0.741840107148164,0.3161492066167584,6.785993512021378,0.4109050456767958,10.986599050695077,121.06191217809597,6.105156601406634,1.394947770929363,41.25506426533684,43.01983885544634
7.305347939953208,1.2205834039951482,0.7636342279874953,0.32768748676445114,7.050574550870806,0.4201687210952886,10.985631148563698,121.06655426993913,6.301770245656371,1.417462419812671,43.497230662964284,43.7555468642296
7.565966548398137,1.243166220687647,0.7859941387578147,0.3390404475465027,7.313874929212034,0.4283100692412587,10.984693090431392,121.07103334002177,6.497542987926863,1.4290247606804467,45.73977876780555,44.51202634291388
7.825490231625736,1.2652818537624766,0.808896489586914,0.350437400472199,7.575919678201899,0.43720971823327187,10.983785300282761,121.07559234733618,6.692315688938834,1.4510473564462,47.982694749720395,45.2907572060636
8.08407033723779,1.2870018275935569,0.8323195076955017,0.3619507174667297,7.8367597500327975,0.4470218940856564,10.982908896985464,121.08017832394381,6.8861157421488315,1.472657306144358,50.225973492953926,46.09008460686729
8.341547180898488,1.308319421450111,0.8562430769961793,0.3732565745616714,8.096404537558556,0.45483765926756126,10.982064622454345,121.0847779726528,7.078858377994038,1.494018200304159,52.46960766520351,46.908821378619415
8.59831246198155,1.329359886602703,0.8806488005502615,0.38445504364609007,8.354940252611414,0.4619621614479474,10.981253198930062,121.08938076399919,7.270744842826389,1.5152450048869452,54.713589259423316,47.74584927822425
8.85223279776983,1.3496112475087383,0.9055195263645146,0.3957133471850301,8.612009676871821,0.46982589225105037,10.980475370422937,121.09399224723356,7.460575736244209,1.5371582006841822,56.9579095793888,48.60028837955948
9.10254921275191,1.3688979598849857,0.9308384591422509,0.40681178673962554,8.867175746941939,0.47629357047358606,10.979731679428369,121.09857462907583,7.647416070336476,1.5575524601955735,59.202560308389366,49.470758112703365
9.352973761968315,1.3881868715582737,0.9565893359540496,0.41804731029402553,9.120831534033641,0.4841481575470514,10.979022396728396,121.10320354761254,7.833119223127142,1.5820182185357552,61.44753181003034,50.35737159724402
9.601719303289428,1.4070611596144358,0.982757302292157,0.4293363051909605,9.372934610117227,0.492143916403804,10.978348307777196,121.10786580357092,8.017354432493448,1.6068191873929623,63.69281664676964,51.259153637196896
9.849473494337872,1.4257068704800762,1.0093284323520493,0.4405798434019946,9.623588901944458,0.49932800715914927,10.9777099811472,121.11254671616373,8.200402113609016,1.6312425448900447,65.93840673565865,52.17514333009086
10.09459899761714,1.4437130116171295,1.0362898441962898,0.4517265944569439,9.872550383443013,0.5054605745397038,10.977107994956896,121.11716004850668,8.381392177427188,1.6512311726459028,68.18429323099554,53.10343264236367
10.338946440955624,1.461551450461581,1.063629026262788,0.46306350869288176,10.119994253385812,0.5132786097222962,10.976542574935593,121.12175314875351,8.56108710996341,1.6733463929554109,70.430464213714,54.04397537050597
10.580595165723935,1.478743867325364,1.091334205615567,0.47439593865913243,10.36567700537853,0.5204661442810535,10.976014332729392,121.12641563336649,8.738639727700502,1.701047810077044,72.67690925300121,54.997381264745556
10.823199713602662,1.4961987016118303,1.119394058623584,0.4860594365503079,10.610134940594435,0.5301096636948335,10.975523827248253,121.13106185155225,8.915904053254053,1.7251479166557038,74.92362115159631,55.9618174342772
11.061665181070566,1.5126087507838248,1.1477983845106792,0.4973453764860003,10.852778606815264,0.5351197436912153,10.975071623572148,121.13577673816324,9.090564885758795,1.7537376633058808,77.17058901302516,56.93793215678462
11.299038182245567,1.5286726979982375,1.1765371686196886,0.508846294156305,11.093745614634827,0.5422593473651657,10.974658102495596,121.14051160698125,9.263524301932193,1.7805522195335015,79.41780544538051,57.92446807555262
11.5374642603565,1.5448742504948336,1.2056006233033258,0.5203684654834437,11.333575755590573,0.5490226171280694,10.974283560412005,121.14521896923158,9.436430590110831,1.8046492452794751,81.66526098083705,58.920201462663755
11.77317876345478,1.5602368837247287,1.2349803014076315,0.5316311838627761,11.571948084281757,0.5529675975318198,10.97394860314671,121.14990700272092,9.60768443136476,1.8290320146613388,83.91294382046908,59.924762563192914
12.008710175286978,1.5753550104380987,1.2646678789460566,0.543089442589316,11.80911157769151,0.5591229176830412,10.973653585882857,121.1546389085846,9.778163403272629,1.8572693851399373,86.16084276512265,60.93864857174119
12.246804834110662,1.5909750887268364,1.2946554164227564,0.5545065293741255,12.04581518121995,0.564521991238685,10.973399215377867,121.159399510096,9.949866532930173,1.8854876286329718,88.40894857421517,61.96119238854106
12.48005118733272,1.6054012895356322,1.324936419405276,0.5659241390761562,12.281175804091617,0.5697716799887896,10.973186494898982,121.16419936497006,10.119146657758392,1.9145891652728906,90.65725068654865,62.99214610542554
12.710622461512685,1.619259742604637,1.355503556347685,0.5775163173568456,12.51492182048969,0.5764972871511198,10.97301560046617,121.16894334501552,10.285849034786224,1.9385366295898554,92.90573965013027,64.0296352003478
12.944774307310581,1.6341596644269374,1.3863493972748984,0.5891237240384833,12.748087366577238,0.5826720013283596,10.972886365023442,121.17368483498532,10.453665318898857,1.9648832624132895,95.15440255776048,65.07413409479838
13.172971321735531,1.6478878218726432,1.4174681343720295,0.6007607778017998,12.979592766147107,0.5886007426380927,10.972799854003824,121.17844371064643,10.618351155426353,1.992985568562961,97.40322745591402,66.12561125023261
13.397836786229163,1.660998394629116,1.4488529344380368,0.6123512575156952,13.20909909484908,0.5936177550321275,10.972756048780866,121.18324544646175,10.779782982193865,2.0229689934732242,99.65220398083329,67.18414792132539
13.621111724991351,1.6738095242791684,1.480496894189855,0.6240519769920301,13.436683552805334,0.5994863305412669,10.972754865768366,121.18807251327736,10.938956173718907,2.052360008359246,101.90132275223732,68.2491524580353
13.849976819008589,1.6879210419218391,1.5123933834547643,0.6358223586526408,13.663844322320074,0.6054942813680341,10.972796328016557,121.19293882411155,11.100577450590208,2.0826092857501126,104.1505734641105,69.32055858545122
14.078546037431806,1.7018490925060212,1.5445376897987444,0.6475968735938387,13.890602891799062,0.6109520960102542,10.972881754743867,121.19783380622509,11.26299804833252,2.1126250935848323,106.39994503185153,70.39791454108295
14.303984489757568,1.7148647064564704,1.576925320609007,0.6592901974641713,14.116409560199827,0.6152118747770808,10.973011991707608,121.20270119988365,11.42385774210561,2.139532605455431,108.64942608587444,71.48003216329657
14.520847270265222,1.7257810358967813,1.6095513876643963,0.6711688411349456,14.339735636953264,0.6212370754891738,10.973187106661499,121.20757802189968,11.57894568273332,2.1682253111029794,110.89900361560285,72.56727834570341
14.742340911179781,1.7377825557943318,1.6424094621906988,0.6830539840402304,14.56199983227998,0.6266493170716744,10.973406232660636,121.21244213209201,11.734501683851704,2.1959423969619802,113.14866704121232,73.65905295255907
14.962425416335464,1.7495980456417293,1.6754949024762027,0.6950746327101007,14.78312913235277,0.6329016105874598,10.973670040606521,121.21724548843909,11.889397852937691,2.2208594308352287,115.39840358123183,74.75433151796511
15.18084729788825,1.7612851069925843,1.7088030894519761,0.7071015209780129,15.003014671150595,0.6384257407079271,10.973978794179857,121.22216366029625,12.043031164677814,2.2556879099451836,117.6481988094747,75.85585882655535
15.394530809018761,1.7722223157923407,1.7423295165062882,0.719158380876851,15.220954221207649,0.6436928044866536,10.974333245074376,121.22705673937024,12.193315219366923,2.2840491911596863,119.89804470166564,76.96106478086811
15.610176770016551,1.7838798802906168,1.7760691235307604,0.7311671454438476,15.437726310454309,0.6480004378035101,10.974732658825815,121.23195448843916,12.343436081544496,2.3131972527245965,122.14792863465846,78.07026946060064
15.82409245800227,1.7953327009372104,1.8100177961750887,0.7430728376756742,15.6532152867876,0.651113039904038,10.975177589687519,121.2369646048463,12.492452771984972,2.348856908150146,124.3978383038193,79.18512860403763
16.030927933752537,1.8052854444887938,1.8441714493674226,0.7550428026015605,15.866258705034852,0.6550784026734618,10.975668632774614,121.2419504128796,12.636779134394601,2.377721617615495,126.64776545763016,80.30312373573398
16.243225620593876,1.816472863208547,1.8785249625216238,0.7671025803136919,16.078435346018523,0.6598227046716696,10.97620454558637,121.24698418282858,12.782506325049326,2.4097471854261934,128.89769767783582,81.42534078707017
16.453896017745137,1.827243101949101,1.9130748388706706,0.7792424648044566,16.289590494241565,0.664962793148025,10.976786454790272,121.25208371696425,12.927817310672253,2.4434464389840262,131.147623879835,82.55192815344
16.661852287128568,1.837378137969312,1.9478175587719306,0.7914499105980632,16.499383114743978,0.6702227820830373,10.977414857712574,121.25717904628088,13.071333377854899,2.4734826400962775,133.39753376878798,83.68152267049051
16.866627167910337,1.8468187461215875,1.9827494100900367,0.8037061080718194,16.70744700403884,0.6753591225918281,10.9780895129079,121.26221017691174,13.212222850881517,2.4995619227722963,135.64741478301585,84.81294566441697
17.06934374338016,1.8558613937536863,2.017866475332994,0.8160163495653798,16.91371391294524,0.6804541180359513,10.978809866937809,121.26725784400922,13.35082714469172,2.5297275102270524,137.89725246094167,85.9474820984408
17.27451974945143,1.865552005789346,2.0531648889300413,0.8282428303489419,17.119032900314778,0.6841104922857758,10.979575930861756,121.27232136551177,13.48999370704405,2.56055362172648,140.14703536219895,87.0849945420335
17.474977941717952,1.8743470656195906,2.08864168159198,0.8404446338154312,17.322647727560252,0.6874140834768814,10.98038840398658,121.27745142660322,13.626555381109938,2.5945024785338635,142.39675118401647,88.2262508554834
17.680251692887396,1.8843204751603264,2.124293280474376,0.8528085110550895,17.525860230904073,0.6923722972220888,10.981247114366852,121.28254986171986,13.764965535374358,2.6233646229899072,144.64639018848538,89.36940400103776
17.8803479061462,1.8932707557909718,2.160117245570291,0.8649474503905711,17.727713535539806,0.6944327206489588,10.982152825105004,121.28759339378487,13.901009825291112,2.650216062497217,146.89593790844083,90.51393744131333
18.0786959878169,1.9019201916712876,2.1961105478694662,0.8770673486703298,17.928127714898437,0.6966956206508071,10.983105103485286,121.29266970753359,14.035060429247096,2.681815701166743,149.14537993632257,91.661308279831
18.27570774545893,1.9103372118248896,2.232270073320251,0.8892932445957231,18.12712147133425,0.7003594041790194,10.98410404054448,121.29789839326696,14.167513540014625,2.721030299526305,151.39470510557294,92.81353766248502
18.468707563355565,1.9179424486843324,2.268592767359223,0.9016478486880491,18.324174863286316,0.7051529581207403,10.985150044085458,121.30315422987455,14.296922448091209,2.7543672340457044,153.64390646480024,93.96828572982845
18.667224335018545,1.9268525732576032,2.3050752449198626,0.9139560670916599,18.520777832251042,0.7088435199727278,10.986242145416327,121.30829679458887,14.42842595372349,2.7788619716608367,155.89297275058925,95.12295771293594
18.85840617166832,1.934403559197711,2.3417154693161137,0.9264310488932471,18.715551866218448,0.7140350203741819,10.987380902282894,121.31345041635487,14.556368636200204,2.8091238779713548,158.14188659749925,96.27970400036502
19.05664525507018,1.9437497899281175,2.378510283131618,0.9388879225004444,18.910272877197713,0.7182578653652197,10.988565894775093,121.31865927835372,14.687123923329636,2.8428072532458755,160.39063636399806,97.43923594864512
19.252171551343054,1.9528984730365524,2.415458071685862,0.9516042640989972,19.104407479520887,0.7247551430060336,10.989798747235909,121.32401309597374,14.817379387328401,2.882187422279411,162.63921060599387,98.60307675607578
19.43473202176392,1.9597239573101366,2.4525567462551408,0.9640881321381557,19.295478720217943,0.7275811095037286,10.99108011345379,121.32936954384586,14.939658422255889,2.9145266959618255,164.88760139234364,99.76857137709595
19.62341604521498,1.9681911584708023,2.4898025378934108,0.97706480802958,19.485322434920818,0.7356042467522503,10.99240709876176,121.33471217916946,15.062424154020846,2.944806695552847,167.1357975732535,100.9353591881274
19.809314584359527,1.9763258073490788,2.527192916953936,0.98978619399867,19.67362639727071,0.7391533836148818,10.993780114338733,121.34009884726981,15.183716611238196,2.978075637549052,169.3837859556079,102.10441896314377
19.990520518738776,1.983628239832383,2.5647254490177147,1.0023008642432523,19.859758626669645,0.7402998554886141,10.99519922491163,121.34538854156217,15.301607755478472,3.004000274465188,171.63155585713685,103.27312836005926
20.171231427695602,1.990875068200672,2.6023972286493517,1.0151103129323018,20.044053164776415,0.7451467707853798,10.996663034427911,121.35075671784728,15.417845117626712,3.038549568838636,173.87909193895757,104.44462358194788
20.35395648283884,1.9985204098483385,2.6402054973877966,1.0278384157054912,20.2272797585465,0.7484057745172343,10.998171907267533,121.35621486685166,15.534633471630514,3.0751133045839536,176.1263851430267,105.61904426265086
20.538693563081324,2.0066022025423536,2.678148266451899,1.0404695047770702,20.410053413826972,0.7504570680754687,10.999726546811871,121.36160881046662,15.652853628387675,3.103547159776182,178.37342620268464,106.79351443276441
20.7270130882971,2.0155068180147717,2.7162240259931423,1.0531625963916118,20.59318023081869,0.7534026500576013,11.001327243284322,121.36705598332692,15.773800309048966,3.137258184993419,180.62019979394972,107.97012735401734
20.904867727309465,2.0223898074062725,2.754431819485035,1.0660774875349994,20.7744959006086,0.7586298932053003,11.002975770970806,121.37246279323075,15.889563279692084,3.1667441629581603,182.866694342345,109.14711124448354
21.07844523852691,2.0285882672802056,2.792769126885105,1.0788827905398743,20.95350675052032,0.7617886726327374,11.004670215770602,121.37793909725433,16.000691309105605,3.201575337283826,185.11289671249688,110.32643500336029
21.255291774403304,2.035697441049996,2.8312332490459085,1.09165671990517,21.131326731760055,0.7644267072507996,11.006409563007765,121.3834515889672,16.111931804800406,3.235414444011123,187.35879808664322,111.50743524250895
21.429349928162992,2.042416565038942,2.8698222865350544,1.1044842731978946,21.307635688688606,0.767625883184395,11.008194098831154,121.38896295434128,16.221549464622512,3.267123690086311,189.60438736528158,112.68937603395341
21.6063551469706,2.0498302351419473,2.908534127927851,1.1173543862248985,21.483324753586203,0.771057179677398,11.010023353272118,121.39450439246909,16.332291628001258,3.3002260531908134,191.84965258836746,113.87278749431813
21.777007270604372,2.055957515088928,2.947367327346001,1.1301654388824254,21.657246846240014,0.7735377901867476,11.011898186407052,121.400026182214,16.43967733089812,3.33092213269094,194.09458228759468,115.05670701121588
21.946047828998417,2.0616760269545034,2.9863197130034678,1.1429017934430576,21.82943252986297,0.7752145907037589,11.013817407889292,121.40556105423846,16.54475931893103,3.363016144231538,196.33916411735117,116.24170226240483
22.112408697605133,2.0667261687471994,3.025389173126314,1.155876781694927,21.999692655168474,0.7797490294838193,11.01578051992692,121.41113250272616,16.647318018367514,3.396610206143221,198.5833870973438,117.42816723085144
22.279600703623146,2.071922389064715,3.0645734239951707,1.1687833161588774,22.1685785590671,0.7827897973010732,11.01778692798689,121.41669620195034,16.749372305115685,3.428082054493755,200.82724118605256,118.61524349807932
