coupler,coupler,$D^a [mM]$,$D^a [mM]$,$I_{islet}^a\ [pg/islet]$,$I_{islet}^a\ [pg/islet]$,$\gamma^b$,$\gamma^b$,$I_{cell}^b [pg/islet]$,$I_{cell}^b [pg/islet]$,$G^b [mM]$,$G^b [mM]$
2.696762793639209,1.0730048205154203,0.5037754067016067,0.07139914022331974,2.5989489148487337,0.1425035524092002,11.004381649428979,120.98938953062957,2.662728616996901,2.250585029475012,5.436810191196855,35.35626039295844
2.9783703784341924,0.9652048359494774,0.511398570597521,0.10072801960964428,2.9440039062756114,0.1638686044510065,11.003091057180427,120.99399925759162,2.9726587105251383,0.5928787305246641,7.672396111476701,35.55949120887895
3.2582498947158456,0.925651765543086,0.5208623707585502,0.12346673546276284,3.236875637783669,0.17440858648799326,11.001765088643879,120.99849321758055,3.2457612338475883,0.5731853985470384,9.908418310224079,35.80439145182243
3.536624928470701,0.914542032935534,0.5317283954209415,0.1431051503451475,3.5180966280167922,0.18370676308063524,11.000459094531834,121.00305383735372,3.5138250716845505,0.5999843017737095,12.1448926681187,36.09051174366767
3.8134227318223566,0.9190632056144185,0.5438262593670515,0.16068621730499263,3.795717716915533,0.1915416134289221,10.999175080796704,121.00758854870713,3.7799635478295386,0.6205831946282827,14.381817649002187,36.41663910227158
4.090087610296905,0.9329006689566036,0.5570473072875757,0.17687711265267936,4.0725054980721325,0.19904072336496137,10.997914513456635,121.0121140637078,4.045787871407811,0.6412187101981683,16.61918694432825,36.781754186155865
4.365623693098314,0.9523242320378469,0.5713091253273888,0.19223514860352786,4.348217233666219,0.2074458951991588,10.996679060277529,121.01670032555245,4.310562913713511,0.665856856774217,18.85699400003068,37.185047645327394
4.6396248346427456,0.9749470219837941,0.586539339448791,0.2066816138472366,4.622479949495755,0.21351794801418217,10.995470371795818,121.02120732711485,4.573849653650541,0.680456326141494,21.095234534004703,37.62460641277569
4.910768695524894,0.9990674564296593,0.6026740360975964,0.2204689516813948,4.894161593983881,0.21964904885838085,10.994289808324538,121.02573812588687,4.834414106386248,0.7013712593515421,23.333898841170594,38.099706901908824
5.180565510760061,1.0239848039092672,0.6196531697059982,0.23374624992282644,5.16424432315398,0.22564405078850075,10.993138817255385,121.03035817449528,5.093492120620795,0.7266017343115533,25.572980910306796,38.60950907388066
5.450484990957193,1.0494847382358374,0.6374264767509885,0.24660753097788987,5.434100692975335,0.23138184449256882,10.992018926073797,121.03488581770338,5.352530052245129,0.7379789029498411,27.81247636862099,39.15146963105803
5.718994796741754,1.0749883385175463,0.655952821514802,0.2589026146947974,5.702779644052498,0.23482426293695968,10.99093149928376,121.03946159987709,5.610293446225114,0.759374014193058,30.052373421378434,39.72524582505217
5.9859256179770455,1.1002263054613335,0.6751928430021508,0.2711960535086723,5.969955749460496,0.24264915550172284,10.989878146676347,121.04401076384977,5.866506532998756,0.7746501180077068,32.292665319982916,40.32893015578189
6.251774207456037,1.1251552549532644,0.6951094553078292,0.2832455095302805,6.23596159380395,0.24787901646916982,10.988860133453272,121.04863063512798,6.121588834386785,0.7972512925294728,34.53334223199636,40.96201748997633
6.51723722810857,1.1498484244351632,0.7156704838998849,0.2953156904680459,6.501421236200258,0.2552005893070905,10.987879004445858,121.05318757628189,6.3762093525147066,0.8086880310764816,36.77439738577232,41.622032989035276
6.781154379015788,1.173973071852034,0.7368475462280912,0.3071642985981103,6.765531450742856,0.25976291511836586,10.986936039524153,121.05773921632425,6.62939073657617,0.8243592357173479,39.01581854745746,42.30819790355168
7.044685694621876,1.1977520637776833,0.7586132531723706,0.3187758266340676,7.029059782624245,0.26354713028391336,10.986032639280893,121.06233644635822,6.882079341914505,0.8441077854936391,41.257595465518534,43.01976645093673
7.305347939953208,1.2205834039951482,0.7809438692202093,0.3303677293017629,7.29017330496572,0.26930749588645964,10.985170339932665,121.06686851646722,7.132134931511246,0.8539653317286559,43.49971908563748,43.75440283492811
7.565966548398137,1.243166220687647,0.8038135259703267,0.34189884911301677,7.550765946507454,0.27439744429815205,10.984350025071763,121.07138722787056,7.381886414368637,0.8677794065450223,45.74217649223283,44.511452277266336
7.825490231625736,1.2652818537624766,0.8272022652090527,0.3535454605838861,7.8103756189811975,0.28129273687598905,10.98357321426738,121.07595424094778,7.6306205777218565,0.887018660656877,47.98495575878769,45.29046437319726
8.08407033723779,1.2870018275935569,0.8510904735303484,0.3651534941219248,8.069031125167385,0.286298059738374,10.982841329299845,121.08056941330724,7.878402366186492,0.9061564205656638,50.22804695786908,46.09037735322985
8.341547180898488,1.308319421450111,0.875460184761323,0.37680509154884884,8.326610570773482,0.29201464180403097,10.982155671226792,121.08514196327879,8.125094597111456,0.9165988293545257,52.47143974294886,46.909102428123354
8.59831246198155,1.329359886602703,0.9002942378574517,0.3883284835442698,8.583403073018417,0.2954718857074991,10.981517315027304,121.08974367007615,8.371036129072309,0.933469460655315,54.7151201358065,47.74649782246303
8.85223279776983,1.3496112475087383,0.925577255024109,0.399639935746648,8.837759828427806,0.2974973402285122,10.98092770378571,121.09438167347142,8.614340860513039,0.9509491879813412,56.95907635986805,48.601717212033805
9.10254921275191,1.3688979598849857,0.9512919909029733,0.4110373287483762,9.088743977015838,0.30298577332885895,10.980387762305327,121.09888392699963,8.854137158836238,0.9511789870240099,59.20329702924937,49.471688256486104
9.352973761968315,1.3881868715582737,0.9774205047870055,0.4225572418903043,9.339137935778126,0.3089626577287725,10.979897768702358,121.10344896036595,9.093678758246824,0.9704993036934041,61.44776448328048,50.35808598955562
9.601719303289428,1.4070611596144358,1.0039505583408754,0.43383257658757723,9.588068594923243,0.31003376831081797,10.979459481313825,121.10799525095725,9.331682684482075,0.9816781979222836,63.69246725831181,51.25904050174757
9.849473494337872,1.4257068704800762,1.0308695128187537,0.445278924923002,9.835911479778588,0.3162082509093761,10.979073742870241,121.11243316909848,9.568639573524706,0.9831573131477914,65.93739084620029,52.17257166137086
10.09459899761714,1.4437130116171295,1.0581655038695317,0.4567750898490935,10.081431973958388,0.32091736047607816,10.978741440107115,121.11697334492678,9.803124958998524,1.006268693247558,68.1825170358643,53.10081251811233
10.338946440955624,1.461551450461581,1.0858258081716485,0.46839238649255466,10.32586370036006,0.32643900669709447,10.978463845793158,121.12157123326641,10.036662030033767,1.0247986572670131,70.4278354626149,54.042477584015984
10.580595165723935,1.478743867325364,1.113840058853384,0.47977061700849516,10.567916956264526,0.3269597916212626,10.978241944219917,121.12616336197242,10.26767456100788,1.036459509118996,72.6733333421871,54.99603070160582
10.823199713602662,1.4961987016118303,1.1421968619979452,0.4913146165808411,10.810257446253672,0.33269175673772755,10.978076256578788,121.13079751803006,10.499294073088095,1.0529477937019842,74.91899574641138,55.96154143590653
11.061665181070566,1.5126087507838248,1.1708886225533206,0.5027247107472061,11.049342517042533,0.3343987242118748,10.97796833096072,121.13534179867759,10.727248364128172,1.0550915067663147,77.16480848100036,56.93652044394354
11.299038182245567,1.5286726979982375,1.199903720349539,0.514267612328819,11.286900941515341,0.33956002613450864,10.977918151998892,121.13988702010542,10.953852237085812,1.0666261244745623,79.41075327713042,57.92174448084434
11.5374642603565,1.5448742504948336,1.2292330906784628,0.5256795047706171,11.524995015002787,0.34102456164438055,10.977926844381727,121.14452032021622,11.18126823590137,1.0878130905828314,81.65681456029415,58.917993233492446
11.77317876345478,1.5602368837247287,1.2588710130366962,0.5371791560656934,11.761025499319658,0.3453985136015273,10.97799610265065,121.14919047136645,11.40632449858822,1.1034276613977443,83.9029789743945,59.92401614523768
12.008710175286978,1.5753550104380987,1.2888084701553453,0.5487010019317822,11.996495403116569,0.3488750691049256,10.978126382571645,121.1537968389584,11.630979530396871,1.1074647064677798,86.14923170395195,60.937826433083174
12.246804834110662,1.5909750887268364,1.3190388483926654,0.5602809266587441,12.23390245391056,0.3527883364905318,10.978318476700224,121.15836774436481,11.85790095385164,1.1143485273825342,88.39555365685374,61.95942108888719
12.48005118733272,1.6054012895356322,1.349558775924379,0.5720644947643861,12.467816991964355,0.3588741339395701,10.978574305889197,121.16302769206565,12.08068520994857,1.1356114546901293,90.64192576985806,62.99031715275369
12.710622461512685,1.619259742604637,1.3803584707493428,0.583720247071433,12.698891730979085,0.36009187697889117,10.978894298197702,121.16762139750827,12.300647945492528,1.1388007450347823,92.88833472691476,64.02770404702534
12.944774307310581,1.6341596644269374,1.4114295880426653,0.5952718372963708,12.932261733803898,0.361302567207322,10.97927832044661,121.17220526685402,12.523550846264698,1.1480959537661006,95.13476111460477,65.07210462874517
13.172971321735531,1.6478878218726432,1.4427698517392855,0.6069775857128323,13.161325740627944,0.3663731898930915,10.9797285705572,121.17676318134205,12.741388317663223,1.1555441745768031,97.3811860177666,66.12291794522247
13.397836786229163,1.660998394629116,1.4743694866483565,0.6188687885890563,13.386862203013152,0.3720285359311759,10.98024464934133,121.18137324513616,12.955720827216282,1.1720222737482573,99.62759149540216,67.18106835256951
13.621111724991351,1.6738095242791684,1.5062201050750446,0.6308053970290005,13.610419690608978,0.3755547569600383,10.980826855171472,121.18601979995007,13.168271430535242,1.1865485024806706,101.87396216019988,68.24599505876672
13.849976819008589,1.6879210419218391,1.538315427285852,0.6428129013558713,13.838052505161613,0.3793372488143493,10.981475676991977,121.1906531359877,13.385675116209313,1.194929809468441,104.12028151191771,69.31660010342779
14.078546037431806,1.7018490925060212,1.5706558112578932,0.6547876170453677,14.066262694541365,0.38157555303131985,10.98219356930349,121.19527652144261,13.603298009140417,1.2037509181386414,106.36652923934162,70.392662165047
14.303984489757568,1.7148647064564704,1.6032379075768404,0.6666919834493719,14.292082781437784,0.383115328864029,10.982981744222343,121.19988976720502,13.818125426769257,1.2124657357078428,108.61268576420844,71.47391852121775
14.520847270265222,1.7257810358967813,1.636055370385293,0.6785385996728813,14.51056333584711,0.3847161281113552,10.983840410131961,121.20447493498959,14.024955565808341,1.2187290331836962,110.85873202234507,72.55982748884148
14.742340911179781,1.7377825557943318,1.6690970310592093,0.6903604140980643,14.73127976199612,0.3866798717854946,10.984767921851017,121.20911052773673,14.23515420826152,1.2343979848439746,113.10464967414737,73.65146236679665
14.962425416335464,1.7495980456417293,1.7023617703816853,0.7023093233932227,14.951315191574395,0.3910554447196623,10.985766721656546,121.21380240220836,14.444422005442902,1.2510248255621235,115.35042056441307,74.74869666305759
15.18084729788825,1.7612851069925843,1.7358455322682858,0.714193849298436,15.169883524999022,0.3924831777271287,10.986837573582307,121.21830650098771,14.652100978884846,1.2365531549893582,117.5960272308439,75.84722197234073
15.394530809018761,1.7722223157923407,1.769543761794921,0.726141159993655,15.384366927202791,0.3957554852903788,10.987980046775192,121.22290886052052,14.855357229011133,1.258134910199677,119.84144336357713,76.95167801428491
15.610176770016551,1.7838798802906168,1.8034494191524573,0.738216912883467,15.599602541420609,0.40009920034673896,10.989194671972655,121.22748196987129,15.059938209829852,1.2634538667211976,122.08665392547846,78.0597089113397
15.82409245800227,1.7953327009372104,1.837560317304451,0.7503122435663634,15.813603685703129,0.4027604511785754,10.990482432069257,121.2321677804282,15.263095299946144,1.286999989986795,124.3316375091672,79.17355358897306
16.030927933752537,1.8052854444887938,1.8718725296203047,0.7624789234805748,16.021693053189665,0.40615638219334016,10.991844358388335,121.23674367242495,15.459738765843213,1.281720921501805,126.57637842930853,80.28922948691991
16.243225620593876,1.816472863208547,1.9063778796116821,0.7745280826237332,16.23296918068081,0.40643902060831044,10.993278157664463,121.24137258264976,15.660647901240736,1.2971088017003725,128.82085398212075,81.40938181230987
16.453896017745137,1.827243101949101,1.941076846618671,0.7866746569829721,16.443580157589167,0.41007825857937547,10.994786981143989,121.24599310807163,15.860520165180787,1.304755424699948,131.0650450643152,82.53279487882904
16.661852287128568,1.837378137969312,1.9759662516298704,0.7988024464425925,16.65188621217385,0.41194777143681505,10.996371161541902,121.25065708200972,16.057847252348438,1.3191095189611362,133.30893096886575,83.66021999094967
16.866627167910337,1.8468187461215875,2.0110416630632244,0.8110004878845102,16.85718555189669,0.4151554054402995,10.998030887451023,121.25521834336531,16.252057876205072,1.313875050563141,135.5524931885302,84.78898062137925
17.06934374338016,1.8558613937536863,2.0462981028831564,0.8232492789187581,17.06023634923622,0.41806075104691176,10.999765268410556,121.2598929264216,16.44410576741211,1.3372418552820262,137.7957080733031,85.92271502242218
17.27451974945143,1.865552005789346,2.0817314371815883,0.8355227214697482,17.264804454520345,0.4204919732704052,11.001575256697834,121.2646067958521,16.638152360683307,1.350864757489967,140.03855975158513,87.05999320660761
17.474977941717952,1.8743470656195906,2.117340881668497,0.8480908999168547,17.4659012532793,0.42737814039566,11.003462224151008,121.2691738682339,16.828154352959245,1.33921058004023,142.2810282893479,88.19743457894597
17.680251692887396,1.8843204751603264,2.153121332230512,0.8605631836116082,17.670155817177147,0.42800678721566027,11.005424633855,121.27390463425918,17.02208753908053,1.3693094574456952,144.52308836951852,89.34039386869439
17.8803479061462,1.8932707557909718,2.189073599758558,0.8731569580629526,17.870899393223226,0.4319808108305347,11.00746628770139,121.27858401205437,17.211755806347355,1.3706720667869416,146.7647240832448,90.48495624550672
18.0786959878169,1.9019201916712876,2.2251927391043864,0.8857112061619409,18.069541845005006,0.43338541603740355,11.00958540814463,121.28328913510725,17.399426105897874,1.3820668165351084,149.0059130229056,91.63238688632413
18.27570774545893,1.9103372118248896,2.261475217237603,0.898092852816067,18.26669455319643,0.4323888575656236,11.011782348970883,121.28795603790269,17.58569583389908,1.3846477882273165,151.24663539975882,92.78145260302074
18.468707563355565,1.9179424486843324,2.297918087511789,0.9106844610527299,18.460339294280857,0.43765313381481324,11.014057077700272,121.29270957836374,17.768216765718535,1.404305045990468,153.48686894215643,93.9342789746813
18.667224335018545,1.9268525732576032,2.3345167007064447,0.9231606308926633,18.657695671077818,0.4376776839400416,11.016409399337135,121.29731839856161,17.955330186290666,1.3918187941130569,155.72659655101597,95.08665252704247
18.85840617166832,1.934403559197711,2.3712724691140465,0.9356547818403624,18.849926038179547,0.4397428004301752,11.018841003766283,121.30200186681768,18.136303609004244,1.4097378068210158,157.9657905139029,96.24241450838267
19.05664525507018,1.9437497899281175,2.4081796821556054,0.9482402487939392,19.046776635106653,0.44307081123028563,11.021351086092182,121.30670616732203,18.323016852606088,1.4201858564231506,160.20443360880017,97.40051240083405
19.252171551343054,1.9528984730365524,2.4452403655159287,0.9608096968615815,19.2423807377927,0.44468231417032517,11.023942690575495,121.31138744929171,18.50786495162174,1.4245440968050007,162.4425036367029,98.56007938701416
19.43473202176392,1.9597239573101366,2.482452013238799,0.9736404012592895,19.427362537011504,0.4509252355108923,11.026615618146025,121.31607498560346,18.680859769927338,1.4328671023858042,164.6799780894071,99.72156828918354
19.62341604521498,1.9681911584708023,2.519804938463494,0.9864352042386437,19.615118477959186,0.4522198233026012,11.029365538735874,121.32075978808258,18.85818302538246,1.439519312056283,166.91683834977448,100.88474637777728
19.809314584359527,1.9763258073490788,2.557299978856463,0.9992375838976728,19.801200589630753,0.45406711197689675,11.0321950558573,121.3254888984629,19.033434857148677,1.4529932740491622,169.1530621908605,102.05039077122397
19.990520518738776,1.983628239832383,2.594934521999676,1.011735349981821,19.98319357680157,0.4505092704167535,11.035104215727188,121.33022723402618,19.204258939716965,1.461441757592741,171.3886302486062,103.21779704710714
20.171231427695602,1.990875068200672,2.6327043278724886,1.024321785990655,20.16397239593789,0.4534050900446442,11.038091550115496,121.33499267485949,19.374197581084445,1.472237263137212,173.62352254614234,104.387224058619
20.35395648283884,1.9985204098483385,2.670607173407916,1.0371241083676062,20.346119495108724,0.4587666594869159,11.04115743318107,121.3396878845647,19.545863324776292,1.4689713145470598,175.85771921649575,105.55684749401786
20.538693563081324,2.0066022025423536,2.7086428233305924,1.0500661298487142,20.530149745289236,0.46295520991947325,11.044302864000201,121.34444748582796,19.719515633769333,1.485038674739339,178.0911960080266,106.7290566991865
20.7270130882971,2.0155068180147717,2.7468114680959843,1.0628455724410875,20.71742240851745,0.46189643502218586,11.04753016133327,121.34918652344214,19.896593888755888,1.4890360506028666,180.3239333089441,107.90224529612424
20.904867727309465,2.0223898074062725,2.7851143193547614,1.0756195124343761,20.89697141945362,0.4633378679203491,11.050841244868934,121.35391579013286,20.064599563367665,1.4945390308648325,182.55590738542378,109.07655776337091
21.07844523852691,2.0285882672802056,2.8235446672770195,1.0885464783097145,21.071553790476173,0.46756011358315486,11.054232576163486,121.35864483931518,20.227851873729378,1.501124704700615,184.7870978936553,110.25211882196649
21.255291774403304,2.035697441049996,2.8620978940161876,1.1012590636044994,21.247757950797677,0.46541811574732994,11.057702571037225,121.36345338498651,20.39357435912825,1.5192383055797598,187.0174846854061,111.43033082112457
21.429349928162992,2.042416565038942,2.9007742117973976,1.1144592712066197,21.42205555550754,0.4753077887063636,11.061253485502675,121.3682164308718,20.557037805905566,1.5192055285660746,189.2470488306135,112.6088554324162
21.6063551469706,2.0498302351419473,2.939571105351206,1.1274905299754452,21.598329551052302,0.4742503009641079,11.064884212100878,121.37297711633359,20.722931294701993,1.5252077883046211,191.47576776333153,113.78844107871204
21.777007270604372,2.055957515088928,2.9784891154267825,1.1404782719600228,21.76991616981104,0.474915947174974,11.068596811499447,121.37774638689,20.883353645680472,1.532938988975396,193.70361949317157,114.96924329709944
21.946047828998417,2.0616760269545034,3.0175240499083884,1.1534142617669607,21.939275958109647,0.4754305160354643,11.072389273671433,121.3825405338977,21.04178224923089,1.5429173256069397,195.93058401159942,116.15151698912985
22.112408697605133,2.0667261687471994,3.0566734921303578,1.1664906087840712,22.106046511325985,0.47930051347726504,11.076261300360784,121.38728279842161,21.197603603592142,1.5414011311100233,198.15664164349437,117.33381257913454
22.279600703623146,2.071922389064715,3.0959347811876796,1.1796920708764669,22.272964128293097,0.4830284113007805,11.080211749882437,121.39198480748395,21.353916202904657,1.5413283210838336,200.38177016563714,118.51631165154883
