coupler,coupler,$D^a [mM]$,$D^a [mM]$,$I_{islet}^a\ [pg/islet]$,$I_{islet}^a\ [pg/islet]$,$\gamma^b$,$\gamma^b$,$I_{cell}^b [pg/islet]$,$I_{cell}^b [pg/islet]$,$G^b [mM]$,$G^b [mM]$
2.696762793639209,1.0730048205154203,0.5037754067016067,0.0710127253265525,2.2076934021315537,0.14307746801616109,11.004381649428979,120.98938136895403,2.696762793639209,0.4473145194456818,5.436810191196855,35.356252268066086
2.9783703784341924,0.9652048359494774,0.5089798531116685,0.10037584483163495,2.4152824621414766,0.2062157425444806,11.003035224508494,120.99388377215543,2.9783703784341924,0.5167177854183156,7.672386407968588,35.55925631252648
3.2582498947158456,0.925651765543086,0.515488858363824,0.12331801092926994,2.6227263180189766,0.25861049549027726,11.001708653755486,120.99838526385155,3.2582498947158456,0.5430153076982341,9.908418215229176,35.80412500081206
3.536624928470701,0.914542032935534,0.5231969389278674,0.14264967612783358,2.829987765464466,0.3050318934422319,11.000403228215873,121.00301119303839,3.536624928470701,0.5757985287991078,12.144900751067325,36.090392111354255
3.8134227318223566,0.9190632056144185,0.5320144226570847,0.15988731820658317,3.037032587104477,0.34823261605035455,10.999120791791938,121.00757348247103,3.8134227318223566,0.5957976641446623,14.381833272404037,36.416568672695675
4.090087610296905,0.9329006689566036,0.541863517544698,0.1757970939276939,3.2438292178558186,0.38958824701870576,10.997862893273123,121.01216575432184,4.090087610296905,0.6207513578245272,16.619207732845098,36.781918431942685
4.365623693098314,0.9523242320378469,0.5526761534420075,0.19041479780424936,3.4503483972512186,0.4287987790980709,10.996631428482942,121.0166598811236,4.365623693098314,0.6360164695305534,18.857018641894683,37.184704441514576
4.6396248346427456,0.9749470219837941,0.5643928857753053,0.204216047172091,3.656562768854201,0.4668362386098525,10.995427973684855,121.02112075689259,4.6396248346427456,0.654703946487538,21.095255617517978,37.623960864696755
4.910768695524894,0.9990674564296593,0.576960693942965,0.2172584220278202,3.8624467795016244,0.5036315859078107,10.994254227727652,121.02569546421081,4.910768695524894,0.6835443633583677,23.333910293644294,38.0992866636834
5.180565510760061,1.0239848039092672,0.5903323923557764,0.23034001971512028,4.0679764008382335,0.5412697486202918,10.993111816002056,121.03028288447271,5.180565510760061,0.7042616200194187,25.57297952636145,38.60882984370481
5.450484990957193,1.0494847382358374,0.6044646694354014,0.24289322029217741,4.273129229317419,0.5779977088245944,10.992002210230567,121.03481775864832,5.450484990957193,0.719245199126504,27.81245563691482,39.15080784847772
5.718994796741754,1.0749883385175463,0.61931928138074,0.2549373410240856,4.47788393648807,0.6137498339622063,10.990927073638886,121.03933190968525,5.718994796741754,0.7361077991516299,30.052327753044665,39.72407918979487
5.9859256179770455,1.1002263054613335,0.634861586309853,0.26672979739591907,4.682220310322009,0.6491875610402371,10.989887989358976,121.0438150318027,5.9859256179770455,0.7514762303782829,32.29258611705154,40.32720519136185
6.251774207456037,1.1251552549532644,0.6510597368323943,0.27836016994422114,4.886119244038127,0.6844998483373503,10.988886429695413,121.0484265832213,6.251774207456037,0.7797995607781311,34.53322020499036,40.96021970589822
6.51723722810857,1.1498484244351632,0.6678845179121708,0.28971019776556955,5.089562607463449,0.7192630485522612,10.987924178130925,121.05294049720065,6.51723722810857,0.7884970216007079,36.77422470552847,41.61985115335246
6.781154379015788,1.173973071852034,0.6853092734090751,0.30101013405415666,5.2925330883590505,0.7541193256841048,10.98700250708498,121.05753013334875,6.781154379015788,0.8118388859005548,39.01558542670682,42.30640503852079
7.044685694621876,1.1977520637776833,0.7033091777702793,0.3121104924150182,5.495014265296049,0.7885637570626837,10.986123130423948,121.06198024057996,7.044685694621876,0.8154781556337615,41.25729443132877,43.01653319957987
7.305347939953208,1.2205834039951482,0.7218614706507651,0.32295968491903926,5.696990394964814,0.8223966432085298,10.985287266783416,121.06652733378989,7.305347939953208,0.8402305477105751,43.499335162807256,43.751391267635434
7.565966548398137,1.243166220687647,0.7409451151179383,0.3341468816496679,5.898446391453035,0.8573955042500262,10.984496489632875,121.07104263229068,7.565966548398137,0.852685862033066,45.741699972655624,44.50847934085974
7.825490231625736,1.2652818537624766,0.7605398944433546,0.34497316399442846,6.099368084571324,0.8913717812724106,10.983752176514827,121.0755248335736,7.825490231625736,0.8646233557351204,47.984375326894224,45.28663659283447
8.08407033723779,1.2870018275935569,0.780627738131443,0.3558435753051646,6.299741584574804,0.9255524960003592,10.983055736403912,121.07995059693235,8.08407033723779,0.8738193346527515,50.2273475616239,46.08449523919265
8.341547180898488,1.308319421450111,0.8011913256777916,0.36645420617146773,6.499553748173639,0.9589758389134714,10.982408539275639,121.08449423852144,8.341547180898488,0.8999340105027073,52.470601689536124,46.903050738115674
8.59831246198155,1.329359886602703,0.8222147528722417,0.37738630515852645,6.698791803326458,0.993417973344647,10.981812321697362,121.08898074539471,8.59831246198155,0.9084310224584647,54.71412873174995,47.73924292434018
8.85223279776983,1.3496112475087383,0.8436825034441426,0.38786464678828886,6.897443781374022,1.0264669129790682,10.981268149334937,121.09342161264794,8.85223279776983,0.9176451700688425,56.95791276637465,48.59224760400194
9.10254921275191,1.3688979598849857,0.8655807543254923,0.3984899154148376,7.095497759524733,1.0599650897052584,10.980777006829157,121.09801869313097,9.10254921275191,0.9473721338820434,59.201938547194004,49.463714035438805
9.352973761968315,1.3881868715582737,0.8878958967688959,0.4090978152881672,7.2929425875190645,1.0933910923351766,10.980340116890147,121.10261231504848,9.352973761968315,0.9603515291533431,61.446198095567524,50.35076908517936
9.601719303289428,1.4070611596144358,0.9106152428430505,0.4196197881467203,7.489767440361902,1.126524249486813,10.979958627838641,121.10712896471838,9.601719303289428,0.9653192315735675,63.6906762868166,51.251629103023525
9.849473494337872,1.4257068704800762,0.9337268573872279,0.43033165005346596,7.6859618469607085,1.1601988562079035,10.9796334693674,121.11169994051247,9.849473494337872,0.9839715735886836,65.93535545375198,52.16727446371576
10.09459899761714,1.4437130116171295,0.9572191926417872,0.44093161123975816,7.881515881745145,1.1934828831298978,10.979366203653626,121.11623901308938,10.09459899761714,0.993134929071703,68.18022228870541,53.09581058017278
10.338946440955624,1.461551450461581,0.98108156042872,0.45153973811875725,8.0764197956305,1.2267369842383031,10.979157446767204,121.120776752466,10.338946440955624,1.0053005431477209,70.42526033520699,54.03696928092199
10.580595165723935,1.478743867325364,1.0053037055185996,0.4622441306920174,8.27066425443627,1.2602211251117554,10.979008512571454,121.12532846092029,10.580595165723935,1.0189884094258665,72.67045356146991,54.99031743004758
10.823199713602662,1.4961987016118303,1.0298758020217065,0.47288244091566756,8.464240309549496,1.2934390343105282,10.97892018314451,121.12979507029299,10.823199713602662,1.021172113719312,74.91578665748239,55.9538245740869
11.061665181070566,1.5126087507838248,1.0547886244312394,0.4836046427986404,8.657139212125912,1.3268384172803718,10.97889382194262,121.13429152465673,11.061665181070566,1.0362812080135662,77.16123948525637,56.928568773024914
11.299038182245567,1.5286726979982375,1.0800332571088802,0.4943062124933183,8.849352612392977,1.360101587261013,10.978930055862293,121.13878360284549,11.299038182245567,1.047145851143084,79.40679709427059,57.913504322197795
11.5374642603565,1.5448742504948336,1.1056012704502791,0.505198690988941,9.040872381301597,1.3938551885745447,10.979029847076163,121.14331124067655,11.5374642603565,1.0625202436052663,81.65244231373072,58.90870918237548
11.77317876345478,1.5602368837247287,1.1314844497828744,0.5157726318429754,9.231690811226144,1.4265848539726969,10.979194945772178,121.14784629528025,11.77317876345478,1.0745663267929224,83.89815849252045,59.913276554305845
12.008710175286978,1.5753550104380987,1.1576753118133638,0.5263877677106932,9.421800079522654,1.4593590732511585,10.979425868834369,121.15241366717922,12.008710175286978,1.0893607684965352,86.14392853528261,60.92712607102873
12.246804834110662,1.5909750887268364,1.1841664265084546,0.5372320655343205,9.611192873911932,1.4927261503746374,10.979723957483657,121.15689653463983,12.246804834110662,1.089987071736087,88.38973547704518,61.94803348324031
12.48005118733272,1.6054012895356322,1.2109505412809085,0.5480279776089005,9.799862272338942,1.525868812972178,10.980090921744704,121.16135202335747,12.48005118733272,1.0973783858725912,90.63555685710162,62.97647132500941
12.710622461512685,1.619259742604637,1.2380208900140133,0.5586424034717784,9.98780137929134,1.558402737931321,10.980526847532019,121.1658635167243,12.710622461512685,1.1147216897117709,92.88137396983802,64.01335569620349
12.944774307310581,1.6341596644269374,1.2653710632002912,0.5694204571845672,10.175003400770947,1.5913307034187822,10.981032484094612,121.17039251233558,12.944774307310581,1.127150595395889,95.12717043515295,65.05771631704731
13.172971321735531,1.6478878218726432,1.2929946711228695,0.580190815977408,10.361462040105835,1.6241556399833788,10.981610079063103,121.17492428214,13.172971321735531,1.1378286522080228,97.37292658817023,66.10897529401025
13.397836786229163,1.660998394629116,1.3208856788405683,0.5910328105225483,10.547171068377793,1.6571054429248953,10.98225902451668,121.17944960432034,13.397836786229163,1.1469883883022536,99.61862419825047,67.16666006507488
13.621111724991351,1.6738095242791684,1.3490382273157593,0.601841067866257,10.732124527683482,1.6898791921850556,10.982979462714866,121.1839591840912,13.621111724991351,1.1547102906904352,101.86424420773983,68.23031402918045
13.849976819008589,1.6879210419218391,1.377446735772537,0.612875478847008,10.916316563729197,1.7232146508571353,10.983772041159682,121.18849646857456,13.849976819008589,1.1678465993005296,104.10976666398346,69.30035220565568
14.078546037431806,1.7018490925060212,1.406105667090742,0.6237700974848039,11.09974174038507,1.7560758087048456,10.984639949863777,121.19297936847788,14.078546037431806,1.1705176632067698,106.35517102107406,70.37515930924366
14.303984489757568,1.7148647064564704,1.4350098977738526,0.6347337109419716,11.282394476933405,1.7890536359837041,10.985584045527503,121.19749104576688,14.303984489757568,1.1838937924828823,108.60043454542756,71.4558440098757
14.520847270265222,1.7257810358967813,1.4641543577017728,0.6456289326045461,11.464269553078339,1.8217648776491693,10.986604807549156,121.20207473487845,14.520847270265222,1.2027916473296807,110.8455380294472,72.54287315511863
14.742340911179781,1.7377825557943318,1.493534227804048,0.6566993178573983,11.645361791364849,1.8548887145761679,10.98770064220298,121.20647071346671,14.742340911179781,1.1867683041314911,113.09046525321901,73.63169653348844
14.962425416335464,1.7495980456417293,1.5231447120022494,0.6677976471583119,11.825666414108127,1.8880155987763743,10.988873303635046,121.21099167559157,14.962425416335464,1.212626809675898,115.33518731594086,74.72732717825161
15.18084729788825,1.7612851069925843,1.5529812537424732,0.6786710017676909,12.005178660852835,1.920452815766525,10.99012465402484,121.21556030114567,15.18084729788825,1.228025129302447,117.57968795858324,75.82824970370318
15.394530809018761,1.7722223157923407,1.5830395791563205,0.6899928775520856,12.183893672889099,1.9540477529156426,10.991454958799295,121.2201460928506,15.394530809018761,1.2392305524512746,119.82394755259156,76.93374852654144
15.610176770016551,1.7838798802906168,1.6133151893154718,0.7012887119489158,12.36180742061697,1.9875002296891549,10.992863492923789,121.2246475971932,15.610176770016551,1.2363483765490821,122.06794624775648,78.04191696013322
15.82409245800227,1.7953327009372104,1.6438039776985534,0.7126692022172663,12.538915550103411,2.021112456930724,10.994351660017855,121.22916247076365,15.82409245800227,1.2467683077057763,124.31165884621441,79.15424579455372
16.030927933752537,1.8052854444887938,1.6745019048103131,0.7237530831944484,12.715213959570974,2.0538594511190538,10.995920312940143,121.23373513192249,16.030927933752537,1.2632278918804003,126.55506430380046,80.27132336513142
16.243225620593876,1.816472863208547,1.705405245476868,0.7350164667557397,12.890698282513767,2.087025466998103,10.997568020131439,121.23824157317827,16.243225620593876,1.2621504487497759,128.7981445118785,81.39085763078762
16.453896017745137,1.827243101949101,1.7365101458854042,0.7464068813870481,13.06536478921771,2.1204679656902936,10.99929739010986,121.24272866784882,16.453896017745137,1.2676787460270653,131.04087375849485,82.51350990322634
16.661852287128568,1.837378137969312,1.7678128906409256,0.7578325227171613,13.23920982517302,2.1539426552253764,11.0011090595508,121.24728692663193,16.661852287128568,1.2858735785628135,133.28322930447757,83.64070040408279
16.866627167910337,1.8468187461215875,1.7993099163868465,0.7691170666297005,13.412229774985462,2.1869865410635336,11.0030033957446,121.25179030504742,16.866627167910337,1.2860789177189131,135.52519184537232,84.77009910663826
17.06934374338016,1.8558613937536863,1.8309978427714668,0.7806805298833401,13.584420940838754,2.2207065342971486,11.004979599965736,121.2563019486449,17.06934374338016,1.2950572148590294,137.76673757098615,85.90267906851335
17.27451974945143,1.865552005789346,1.862873186764773,0.7919636961655419,13.755780222825706,2.2536392982865947,11.007038106326945,121.26090029323542,17.27451974945143,1.3151817335231069,140.00784483924508,87.03968240109141
17.474977941717952,1.8743470656195906,1.8949328191229142,0.8032875418574899,13.926304000429809,2.2866274778593905,11.009181258501485,121.26535088332537,17.474977941717952,1.3015350622024433,142.24849355220795,88.17687862248458
17.680251692887396,1.8843204751603264,1.9271735473303124,0.8148276300305916,14.095989120658487,2.3201253503046404,11.011407041805796,121.26996940252225,17.680251692887396,1.3334281620490358,144.4886564128101,89.31971055652623
17.8803479061462,1.8932707557909718,1.9595921852742322,0.8261296597901748,14.264832772314548,2.3529627312400194,11.013719870476052,121.2744793766288,17.8803479061462,1.3252732868191472,146.72831557877362,90.4631856661911
18.0786959878169,1.9019201916712876,1.9921858315938152,0.8377720606655004,14.432831693906337,2.3866262229738373,11.01611728221178,121.27897991696136,18.0786959878169,1.3312418779900725,148.96744471043348,91.6089628040119
18.27570774545893,1.9103372118248896,2.024951407511253,0.8493708765750612,14.59998343931511,2.4201329414246806,11.018599924747832,121.28356973546718,18.27570774545893,1.3516954185466499,151.20602088980377,92.75869000749908
18.468707563355565,1.9179424486843324,2.0578860774985515,0.8609079429638578,14.766285208519548,2.453440348190581,11.021168622071855,121.28811166826905,18.468707563355565,1.351805558575135,153.44402446225286,93.9098305225085
18.667224335018545,1.9268525732576032,2.0909870853065513,0.8725015195768573,14.931734262499958,2.486849969316263,11.023821878479794,121.29261019104418,18.667224335018545,1.3522826060475286,155.6814313158393,95.062380594729
18.85840617166832,1.934403559197711,2.1242516922648065,0.8840670422536125,15.09632812300697,2.520150723694313,11.026563050341792,121.29712334996002,18.85840617166832,1.3616021526638669,157.9182153251022,96.21729364493359
19.05664525507018,1.9437497899281175,2.1576772622647695,0.8959018987422559,15.260064290836453,2.55408679294671,11.029390063718893,121.30169993391209,19.05664525507018,1.3779942274413266,160.15435526147485,97.375355754765
19.252171551343054,1.9528984730365524,2.191261101339478,0.9074676763670874,15.4229407585226,2.5873181011603554,11.032307232962921,121.30623328692344,19.252171551343054,1.3785091955936497,162.38982810266316,98.53457301059908
19.43473202176392,1.9597239573101366,2.225000795617234,0.9193334092787583,15.58495489647612,2.6212580413596536,11.035313729313202,121.31083383092812,19.43473202176392,1.3956350835176554,164.62460858747363,99.69685388663302
19.62341604521498,1.9681911584708023,2.258893762191292,0.9311758259023304,15.74610493099317,2.655107320603054,11.03840500221122,121.31532644844448,19.62341604521498,1.3855282596293566,166.85867857001722,100.85897465253187
19.809314584359527,1.9763258073490788,2.2929376054089516,0.9427700511187728,15.906388743780553,2.688318888400546,11.041583812562749,121.3198627014738,19.809314584359527,1.3988127728087028,169.09200953505933,102.02360608326042
19.990520518738776,1.983628239832383,2.327130070014391,0.9543810069370072,16.065803991165012,2.7215451891897366,11.044850468286313,121.3243992760692,19.990520518738776,1.405296590014494,171.32458025589585,103.18989572933958
20.171231427695602,1.990875068200672,2.361468849296216,0.9658124863526303,16.22434876160696,2.754312763869084,11.048203332233243,121.32891772384394,20.171231427695602,1.408704142068031,173.55636838451028,104.3574473101333
20.35395648283884,1.9985204098483385,2.395951761107426,0.9774781391725479,16.38202095590532,2.7876242414986123,11.051642847247422,121.33347962329587,20.35395648283884,1.4216555436342349,175.787350255996,105.52731475680235
20.538693563081324,2.0066022025423536,2.4305765181197785,0.9894012718415212,16.5388191412203,2.8215318534713676,11.05517109297216,121.33803300678863,20.538693563081324,1.4265513834005676,178.01750362850726,106.69849328909869
20.7270130882971,2.0155068180147717,2.465340875496622,1.0010863928225557,16.69474201509729,2.854849268786078,11.058789576753043,121.34261082222892,20.7270130882971,1.4366477166125042,180.24680392630398,107.87152480844844
20.904867727309465,2.0223898074062725,2.500242814363446,1.012987991750535,16.84978762594983,2.888663056654872,11.062501066364348,121.34712575298154,20.904867727309465,1.433064426240165,182.475226867944,109.04476800089675
21.07844523852691,2.0285882672802056,2.535280198440887,1.0247850289125562,17.003954767715186,2.922211379041427,11.066300717764534,121.35167846213821,21.07844523852691,1.4449929239457575,184.70274826698005,110.22000812095308
21.255291774403304,2.035697441049996,2.570451046980452,1.0366051461720232,17.157241840381175,2.95579861013696,11.070187667850405,121.35616205520962,21.255291774403304,1.4397031184478912,186.92934720031917,111.39524595656047
21.429349928162992,2.042416565038942,2.6057533772545867,1.0484053442957484,17.309647501911968,2.989325306492822,11.074163702316582,121.3607748734207,21.429349928162992,1.4661862808138446,189.15499711595476,112.5740542347525
21.6063551469706,2.0498302351419473,2.6411852606688626,1.0602345228744054,17.461170411203057,3.0229075320283156,11.078229241888039,121.36531813882692,21.6063551469706,1.4608014949737176,191.37967979349196,113.75274495042214
21.777007270604372,2.055957515088928,2.6767447910388,1.0720780460898311,17.611809383612126,3.056512363967166,11.082385418820195,121.36987032286534,21.777007270604372,1.4680192317608196,193.60336825810373,114.93271558019462
21.946047828998417,2.0616760269545034,2.7124301050207578,1.0841643395866085,17.76156327361241,3.090668311934244,11.086630119825713,121.37451702588154,21.946047828998417,1.4887762011603622,195.82604070194066,116.1154849072229
22.112408697605133,2.0667261687471994,2.748239300621208,1.095829485914734,17.91043136967346,3.1238466497522346,11.090963679016568,121.37907312659381,22.112408697605133,1.4796457481687761,198.0476776007563,117.29761399216773
22.279600703623146,2.071922389064715,2.784170732367784,1.10768411774194,18.05841196840629,3.157454112788276,11.095384309533983,121.38360345897222,22.279600703623146,1.4807756220851702,200.2682531736791,118.48026284951004
