coupler,coupler,$D^a [mM]$,$D^a [mM]$,$I_{islet}^a\ [pg/islet]$,$I_{islet}^a\ [pg/islet]$,$\gamma^b$,$\gamma^b$,$I_{cell}^b [pg/islet]$,$I_{cell}^b [pg/islet]$,$G^b [mM]$,$G^b [mM]$
2.696762793639209,1.0730048205154203,0.5037754067016067,0.07158655572468256,2.696762793639209,0.14282315139092408,11.004381649428979,120.98936253066634,2.6286944411403965,4.433733857701763,5.436810191196855,35.35623351467409
2.9783703784341924,0.9652048359494774,0.5119457473774673,0.10081984808318653,2.9783703784341924,0.1642449599372142,11.003262905753218,120.993882634422,2.9601402072876226,1.091595893519423,7.672404543904122,35.559359930851414
3.2582498947158456,0.925651765543086,0.5215813902177615,0.12381408785086832,3.2582498947158456,0.1733391481669906,11.001946067321114,120.99841123612516,3.230768666835502,0.7024364920080328,9.90837868663948,35.80439765034859
3.536624928470701,0.914542032935534,0.5325451668322785,0.14318268444154547,3.536624928470701,0.1797244935251578,11.000640884158202,121.0029575498232,3.4880269072018564,0.703144520235063,12.144804397947155,36.09053388262962
3.8134227318223566,0.9190632056144185,0.5447216801985633,0.1605784733405386,3.8134227318223566,0.18731876202993197,10.999356320826337,121.00754053729995,3.7413453602348454,0.7230009483848862,14.381682959734462,36.416898539279714
4.090087610296905,0.9329006689566036,0.5580124500993406,0.17653057877685452,4.090087610296905,0.19401847009125425,10.998093933681957,121.01211990933383,3.993765534250997,0.7408933844977209,16.619011263828725,36.78230345170325
4.365623693098314,0.9523242320378469,0.5723389208578737,0.19166672966888174,4.365623693098314,0.20210322336373412,10.996855136239901,121.01661831230466,4.245099064894021,0.7539160265359484,18.85678346757777,37.18521917211313
4.6396248346427456,0.9749470219837941,0.5876291258464335,0.2061430425676096,4.6396248346427456,0.20957793825819476,10.995641259709373,121.02115515646476,4.4949834093567915,0.7733435971737785,21.094990581041202,37.624998895571224
4.910768695524894,0.9990674564296593,0.6038191926782019,0.21994648376649698,4.910768695524894,0.21548519511888398,10.994453779188916,121.02570107112395,4.74228826892795,0.7911040962090314,23.33362767100334,38.100242609788246
5.180565510760061,1.0239848039092672,0.6208490159042412,0.23324365171647224,5.180565510760061,0.22137365327805963,10.993293868843466,121.03024298815022,4.987995809467975,0.8076904388557647,25.572688635904342,38.60957045989747
5.450484990957193,1.0494847382358374,0.6386695436522132,0.24609255599735513,5.450484990957193,0.22669121638754464,10.992162780021317,121.03481940013963,5.233478287409525,0.8265497740867439,27.812166296876967,39.15192847038495
5.718994796741754,1.0749883385175463,0.6572409698419506,0.25866303950159397,5.718994796741754,0.23269288622239537,10.991061974549666,121.0393962042637,5.477784345566761,0.8431643389523673,30.052054133731872,39.725747890943836
5.9859256179770455,1.1002263054613335,0.676523225105484,0.2711134254968256,5.9859256179770455,0.23956500351500828,10.989992704009637,121.04389388471382,5.720588317664806,0.8539091295235418,32.292344263289124,40.329037152490606
6.251774207456037,1.1251552549532644,0.6964796671672957,0.28338627899003815,6.251774207456037,0.2453785399906931,10.988956070621498,121.04845879784799,5.962222541216761,0.874514477559734,34.53302563680336,40.96167199406526
6.51723722810857,1.1498484244351632,0.7170783935434883,0.2953453675579309,6.51723722810857,0.24924389246925105,10.987953521544114,121.05301447146365,6.203310914570466,0.8899233340412603,36.77409210568294,41.62169784708932
6.781154379015788,1.173973071852034,0.7382919213996502,0.3070684964331937,6.781154379015788,0.25334239780858475,10.986986265401356,121.05756461035534,6.4430500224698335,0.9052537014576509,39.01553418301046,42.30785920449614
7.044685694621876,1.1977520637776833,0.7600922757264925,0.3189234074726015,7.044685694621876,0.26107323416188855,10.98605548706837,121.06212274273412,6.6822072946233675,0.9214438654049236,41.25734238838777,43.0190355583906
7.305347939953208,1.2205834039951482,0.7824559296859661,0.33059658660768226,7.305347939953208,0.26508179400813636,10.985162490629591,121.06669984819341,6.918949711485766,0.9384404670600675,43.49950717994943,43.754131080717734
7.565966548398137,1.243166220687647,0.8053566534945276,0.3422843220050193,7.565966548398137,0.27096728612884585,10.984308264101855,121.07120032806651,7.155171098653227,0.9476558842114645,45.74201956950128,44.51095258903204
7.825490231625736,1.2652818537624766,0.8287753776239697,0.35409429607434406,7.825490231625736,0.27795716645116963,10.98349388455972,121.07578611501611,7.390409266925417,0.9694609172804287,47.98486627265811,45.29012934347619
8.08407033723779,1.2870018275935569,0.8526924034813419,0.3656751177492982,8.08407033723779,0.2805411435421836,10.982720804749988,121.08034941792667,7.624692976358347,0.9829396459554302,50.22803971776739,46.08938187422248
8.341547180898488,1.308319421450111,0.8770900214440189,0.37727693257556333,8.341547180898488,0.2858614415634389,10.981989979860373,121.08500417609245,7.857900287606753,1.0054829530758596,52.47152800578624,46.90900414995825
8.59831246198155,1.329359886602703,0.9019509561767336,0.3886513736244464,8.59831246198155,0.28784184013731473,10.981302739819512,121.08951947635215,8.090320284711197,1.0088072941520838,54.71532311756164,47.745242994632015
8.85223279776983,1.3496112475087383,0.9272600822150707,0.4001296597066242,8.85223279776983,0.2937825761717195,10.980659777065739,121.09413098757838,8.320304142776877,1.0313514735505949,56.95940821245313,48.600021715194394
9.10254921275191,1.3688979598849857,0.9529992211901117,0.41168633102542773,9.10254921275191,0.2992714227414898,10.98006236529909,121.09862416178585,8.546915066195652,1.035817553570474,59.20377526152879,49.46974962375934
9.352973761968315,1.3881868715582737,0.9791503775340971,0.4229201507659225,9.352973761968315,0.29925015379581316,10.97951063979417,121.10314471596392,8.772935401997529,1.0520984104754092,61.44840831961483,50.355422065203484
9.601719303289428,1.4070611596144358,1.0057028194714803,0.43428449239131,9.601719303289428,0.3050419559963622,10.97900599555578,121.10773953539989,8.997492055874318,1.0730679220513497,63.69329596031457,51.25685600075592
9.849473494337872,1.4257068704800762,1.0326430557470303,0.44548644844280777,9.849473494337872,0.30673727393944816,10.97854945983272,121.11242888778538,9.220960625563748,1.0960733704790488,65.93842827994376,52.17357491850659
10.09459899761714,1.4437130116171295,1.0599598685803358,0.45714230697273905,10.09459899761714,0.31677707221920404,10.978142061387189,121.11698625421602,9.442106454516761,1.098423557450335,68.18379570636898,53.10176922085259
10.338946440955624,1.461551450461581,1.0876396621169988,0.4685901445955538,10.338946440955624,0.317687330010742,10.977783936075866,121.12161561515403,9.662163189379498,1.1185473892656395,70.42938052862883,54.04356130917008
10.580595165723935,1.478743867325364,1.1156730227230582,0.4801518416712516,10.580595165723935,0.32290621091034744,10.977476467145607,121.12614719369708,9.879841188783757,1.1233976691881298,72.67517203092575,54.995914558831366
10.823199713602662,1.4961987016118303,1.1440477261203341,0.4916510952136943,10.823199713602662,0.3255416505935393,10.977219850872643,121.130812511583,10.097806249861605,1.149399734638934,74.92115327436477,55.961515824791356
11.061665181070566,1.5126087507838248,1.1727574728720356,0.5032603226134301,11.061665181070566,0.330556665765305,10.977015858981758,121.13540427610545,10.312515759957023,1.156529005705984,77.16731499135494,56.93679310413717
11.299038182245567,1.5286726979982375,1.2017892037401907,0.5147147691452897,11.299038182245567,0.331633313958417,10.976864315452985,121.14004448411188,10.525698571349494,1.1744402817375716,79.41364082880318,57.922982848561354
11.5374642603565,1.5448742504948336,1.2311347709037364,0.5261783347146278,11.5374642603565,0.33493928796142464,10.976766235544346,121.14460776456889,10.739417022559792,1.1804801098508824,81.66011844575405,58.91770763355907
11.77317876345478,1.5602368837247287,1.2607889074424747,0.5376663245537374,11.77317876345478,0.33842329358351697,10.976722514024004,121.14921901289216,10.951071971096098,1.1982712288648387,83.90673008561134,59.92235087699589
12.008710175286978,1.5753550104380987,1.2907418866525404,0.5491455709795404,12.008710175286978,0.3413158227610189,10.976734038209543,121.15380303978544,11.162166535621509,1.2089857005730515,86.15346296783537,60.93531247586897
12.246804834110662,1.5909750887268364,1.3209875758911949,0.560973669738669,12.246804834110662,0.3495166346502918,10.976801526616327,121.15839418698494,11.375198522931896,1.2227833273086193,88.40030095912516,61.95668313640866
12.48005118733272,1.6054012895356322,1.3515231986239087,0.5726925419953931,12.48005118733272,0.35094950804569264,10.976926662726328,121.16299998980627,11.584738374571316,1.2375286652188398,90.64722824376076,62.9861690662402
12.710622461512685,1.619259742604637,1.3823376580839977,0.5843287955314871,12.710622461512685,0.35259075360008973,10.977109593572095,121.16769611945028,11.791438922518864,1.2598741062698433,92.89423036109656,64.02456615668902
12.944774307310581,1.6341596644269374,1.4134226686437614,0.596179479088591,12.944774307310581,0.35865752874296225,10.977350801927969,121.17233766032331,12.000435358611867,1.2676651600497648,95.14129530172795,65.06922640430209
13.172971321735531,1.6478878218726432,1.4447773112915456,0.607955543913843,13.172971321735531,0.36036809805583675,10.977651534951292,121.1770362589337,12.205126516520977,1.2863843939754305,97.3884043097496,66.12157731242638
13.397836786229163,1.660998394629116,1.4763902055856306,0.6199406315812656,13.397836786229163,0.36630296802505097,10.97801191417966,121.18168932366659,12.406290940823965,1.2947741948170652,99.63554411847144,67.17965091736659
13.621111724991351,1.6738095242791684,1.508253110543592,0.6317247404357669,13.621111724991351,0.3658531962029101,10.978431582334451,121.18627112541124,12.605477285804227,1.2998103489545456,101.88269751984626,68.24272573808447
13.849976819008589,1.6879210419218391,1.5403603265003767,0.643599897865537,13.849976819008589,0.3698255980372992,10.97891080880072,121.19086710704175,12.808739981148392,1.31355840854291,104.12984601221979,69.31189911344353
14.078546037431806,1.7018490925060212,1.5727137160429265,0.6553378752746957,14.078546037431806,0.37025587015201183,10.979452057508752,121.19550093277059,13.012581232236698,1.330316315604712,106.376972457394,70.38728062220885
14.303984489757568,1.7148647064564704,1.6053090314380825,0.6672609082203933,14.303984489757568,0.3757157649863808,10.980056592961773,121.20013564325149,13.214033735450357,1.343287340474475,108.6240608561784,71.46800036933821
14.520847270265222,1.7257810358967813,1.6381390008027665,0.6791829270432933,14.520847270265222,0.3781953429040985,10.980724537628703,121.20485871971229,13.408148227259517,1.3653826916410527,110.87109433300793,72.55525771803728
14.742340911179781,1.7377825557943318,1.671191307657864,0.6910750110071462,14.742340911179781,0.3800570366175392,10.981454813969322,121.2095125096671,13.604500248329714,1.3706875746670153,113.11806054972112,73.64619545775055
14.962425416335464,1.7495980456417293,1.7044673133059405,0.7029813426033618,14.962425416335464,0.3826461916303281,10.982248505228199,121.21414541243463,13.800172991584986,1.3805380321093315,115.36493909917772,74.74140541021643
15.18084729788825,1.7612851069925843,1.7379622690496035,0.715048120916893,15.18084729788825,0.38756374497440627,10.983106456347741,121.21890543215987,13.99438051180914,1.406618367253101,117.6117117907852,75.8431646025424
15.394530809018761,1.7722223157923407,1.7716712997062132,0.7272181460697605,15.394530809018761,0.391556587824883,10.984029634157196,121.22364646055544,14.184505162527785,1.417453184826222,119.85836585611105,76.94879992322429
15.610176770016551,1.7838798802906168,1.8055868213414215,0.7393835775935287,15.610176770016551,0.39374022956823995,10.985017056111246,121.22832074541685,14.375384190585464,1.4222639403750212,122.1048836633563,78.0573166108499
15.82409245800227,1.7953327009372104,1.8397078875568695,0.7515127733940684,15.82409245800227,0.3953964670788569,10.986069644801319,121.23300847780604,14.56503101857379,1.4356215093456093,124.35124479047954,79.16990690880827
16.030927933752537,1.8052854444887938,1.8740300737554207,0.7636504766030515,16.030927933752537,0.39772357355662324,10.98718812817242,121.23781199586281,14.748768548713997,1.4605824001014023,126.59743203036487,80.28814939176493
16.243225620593876,1.816472863208547,1.9085441352217458,0.7757703409042289,16.243225620593876,0.3995002411392522,10.98837169248145,121.2425491352984,14.935695470543578,1.4657110965371982,128.8434329573065,81.40874722274404
16.453896017745137,1.827243101949101,1.9432525941519998,0.7878770585222198,16.453896017745137,0.401389622700225,10.98962159594521,121.24726446877412,15.121960014104843,1.4750326450286741,131.08922627568245,82.53232162168594
16.661852287128568,1.837378137969312,1.9781514598871581,0.8001720313023896,16.661852287128568,0.4065968869585531,10.990938582457602,121.2520175928196,15.305922547355294,1.4911434666369132,133.3347930330783,83.65976000567268
16.866627167910337,1.8468187461215875,2.013235830992926,0.8125877843598862,16.866627167910337,0.41067838002033463,10.992322882404551,121.25676961091591,15.48688149312511,1.5031001816496405,135.58011672087014,84.79024572154727
17.06934374338016,1.8558613937536863,2.0485006422386505,0.8247356873403358,17.06934374338016,0.40820966741820286,10.99377404851839,121.2615578764902,15.665595163125545,1.5189948301100464,137.82517950050533,85.92429837129532
17.27451974945143,1.865552005789346,2.083942070545163,0.8371296582052437,17.27451974945143,0.414278309550377,10.995292169973254,121.26624464568157,15.845829547382891,1.5194037695767493,140.06996488384902,87.05938395058978
17.474977941717952,1.8743470656195906,2.1195599583443254,0.8496272034130057,17.474977941717952,0.41802040158697773,10.99687802605331,121.27104676734648,16.022596201393753,1.5437998634722567,142.3144502621144,88.19919303716533
17.680251692887396,1.8843204751603264,2.155348278407473,0.8620476668292886,17.680251692887396,0.41866217638943304,10.99853193690069,121.27591992736416,16.20252432860434,1.5640193652503591,144.5586221255362,89.34282039708458
17.8803479061462,1.8932707557909718,2.1913091748720035,0.8744962834764677,17.8803479061462,0.4211023841618429,11.000255731050856,121.28063195521433,16.378945404896513,1.5577801483030065,146.80246342904866,90.4860583689125
18.0786959878169,1.9019201916712876,2.2274363405886106,0.8870318959955603,18.0786959878169,0.4244754142634145,11.00204783026129,121.28541988412451,16.553269419120625,1.5773859086902988,149.0459500439465,91.63301177091562
18.27570774545893,1.9103372118248896,2.263726476870943,0.8993774221092354,18.27570774545893,0.42308244436684644,11.003909113118425,121.290200226489,16.726108005270362,1.5883973012593489,151.28906651213765,92.7820942147874
18.468707563355565,1.9179424486843324,2.3001768141402863,0.9118656466521174,18.468707563355565,0.4273293497734852,11.005839395686053,121.29499358275125,16.895443132845685,1.6013868639804023,153.53179393336177,93.93357864962772
18.667224335018545,1.9268525732576032,2.3367823183652945,0.9243951996449545,18.667224335018545,0.42980505070961467,11.007838055957109,121.2998189402123,17.068494488485157,1.6165452665604036,155.77411486394703,95.08771236127318
18.85840617166832,1.934403559197711,2.373545776878018,0.9369666904259087,18.85840617166832,0.4323529936658191,11.009907377650961,121.30465334523836,17.236424655420706,1.6292588699874337,158.01601064763963,96.24399462500676
19.05664525507018,1.9437497899281175,2.4104597708792426,0.9495053085026126,19.05664525507018,0.4335135259672443,11.012045877869241,121.30947384848346,17.408980041509494,1.6390735465409578,160.2574636694044,97.40193350333688
19.252171551343054,1.9528984730365524,2.4475282790954225,0.9622393517713901,19.252171551343054,0.4387027705233582,11.014256043708883,121.3143122258794,17.580294063314795,1.6525778802133388,162.49845322221518,98.56201996935953
19.43473202176392,1.9597239573101366,2.484747548820451,0.974910221962604,19.43473202176392,0.4393997427788004,11.016538208932616,121.31919312135317,17.740991151425987,1.6690580256673297,164.73896065540612,99.7246189410441
19.62341604521498,1.9681911584708023,2.522106279793661,0.9876490628416119,19.62341604521498,0.44220487176005924,11.018888705060817,121.32402969712942,17.904467860469595,1.6752728439905533,166.9789708610624,100.88809458360163
19.809314584359527,1.9763258073490788,2.559607741655782,1.000280788348512,19.809314584359527,0.4420145070703982,11.021308930125087,121.32891109423645,18.066276407567784,1.6915323447861634,169.21846273168921,102.05398924084703
19.990520518738776,1.983628239832383,2.5972485425299965,1.0128935528634933,19.990520518738776,0.4432950937775916,11.023799205664545,121.33384758884067,18.2240017070435,1.7093483053921092,171.45741937682033,103.22241662490747
20.171231427695602,1.990875068200672,2.6350238849991,1.02573209058244,20.171231427695602,0.44882901801116554,11.02635845367331,121.33875368926586,18.380518983118236,1.71716348877099,173.69582486711442,104.39176177084788
20.35395648283884,1.9985204098483385,2.672932123823557,1.038157931982246,20.35395648283884,0.44307698518483535,11.02898633107543,121.34379618298048,18.538410732988268,1.743979592035056,175.933659626171,105.5649891103203
20.538693563081324,2.0066022025423536,2.7109737167484127,1.0509514134062539,20.538693563081324,0.45113297536680236,11.031684818095528,121.3486948736141,18.698191949399188,1.7389475932228626,178.17090969718993,106.73693935364884
20.7270130882971,2.0155068180147717,2.749148699862417,1.0637120799797548,20.7270130882971,0.45214759107314506,11.034454036154784,121.3537007223076,18.861222063191235,1.7619954318077562,180.40755012445152,107.91213491179907
20.904867727309465,2.0223898074062725,2.7874585432582535,1.0769567359485588,20.904867727309465,0.4623421967473747,11.03729722823482,121.35870134563876,19.01653533708304,1.7731070501150321,182.64356478489935,109.08846142142337
21.07844523852691,2.0285882672802056,2.8258944888948463,1.089813987959243,21.07844523852691,0.45708737839663766,11.040211033890955,121.36362699665878,19.16688896645792,1.7753450694321378,184.8789355866611,110.26460091955754
21.255291774403304,2.035697441049996,2.8644527086871676,1.102852767575256,21.255291774403304,0.4617908513590261,11.04319338768255,121.36861196657131,19.31887144804932,1.7928746731615037,187.11364207230508,111.44296590641846
21.429349928162992,2.042416565038942,2.903134320222307,1.1156610623433074,21.429349928162992,0.45918600918335983,11.046246225829236,121.37353892091757,19.46895477012731,1.7972415364686833,189.34766756929457,112.62135701954438
21.6063551469706,2.0498302351419473,2.941936486400664,1.12844336844096,21.6063551469706,0.46014670149987313,11.049368665437214,121.37858515278151,19.621021823724732,1.8219240166263997,191.580991467461,113.80297899533848
21.777007270604372,2.055957515088928,2.98086019535549,1.141488489069174,21.777007270604372,0.4663412611733506,11.052563046454452,121.38353926105168,19.768409219104797,1.8225691393339072,193.81359888985753,114.98390024066268
21.946047828998417,2.0616760269545034,3.0199000685242936,1.1544430569979918,21.946047828998417,0.46614228161239907,11.055826676660217,121.38858046245079,19.913577656261623,1.8432733815351956,196.0454684458673,116.16737769654058
22.112408697605133,2.0667261687471994,3.059054204786662,1.1674197267331166,22.112408697605133,0.46793019030554583,11.059159895288758,121.39356026089304,20.056164941284806,1.8472000375810766,198.2765854075551,117.35063492678793
22.279600703623146,2.071922389064715,3.0983199081383646,1.180262034895651,22.279600703623146,0.46683659510306913,11.062561241793446,121.39858939997391,20.198907454498112,1.8634806468415033,200.5069296900183,118.53567623031778
