coupler,coupler,$D^a [mM]$,$D^a [mM]$,$I_{islet}^a\ [pg/islet]$,$I_{islet}^a\ [pg/islet]$,$\gamma^b$,$\gamma^b$,$I_{cell}^b [pg/islet]$,$I_{cell}^b [pg/islet]$,$G^b [mM]$,$G^b [mM]$
2.696762793639209,1.0730048205154203,0.5037754067016067,0.07037808725870552,2.4522280980017968,0.14075588271296965,11.004381649428979,120.98938267404418,2.526591913512675,11.03708467089333,5.436810191196855,35.35625356727453
2.9783703784341924,0.9652048359494774,0.5105381402099738,0.09980833206214107,2.8190937350154854,0.17126291733138857,11.004474717425182,120.99392076303592,2.881743685778929,5.656027531907864,7.672433495754376,35.559548194326695
3.2582498947158456,0.925651765543086,0.5193571986164898,0.12298550047437964,3.1423714067204855,0.1893257214574134,11.003519649500959,120.99843406167167,3.150345592701342,3.142356196932973,9.90809723478742,35.80474561986564
3.536624928470701,0.914542032935534,0.5297802007844439,0.14238284010511912,3.4430735394125804,0.20027230341580757,11.00232019845862,121.00289495747859,3.374921461683698,2.124736973407125,12.144112864974886,36.090865210467335
3.8134227318223566,0.9190632056144185,0.5415548329910962,0.15968413251700417,3.731676414841786,0.2097698267604389,11.001074315514416,121.00746125227728,3.576688470086083,1.8093044293290919,14.380558034637943,36.417437480808964
4.090087610296905,0.9329006689566036,0.5545200201449916,0.17584875877931275,4.0141440007137135,0.21998738797344938,10.999830358079635,121.01199426869114,3.766975275182631,1.736204134124991,16.617455783532932,36.78292252080929
4.365623693098314,0.9523242320378469,0.5685641000309261,0.19105884969424625,4.292962729348801,0.2291876890441964,10.998599972459488,121.016550409097,3.9509476766106673,1.7287090505600688,18.854807689785957,37.18640253622745
4.6396248346427456,0.9749470219837941,0.5836011799838161,0.2052607575060232,4.569174351752736,0.2359446545857643,10.997386206872761,121.02110481499706,4.130985442432575,1.7357202935671554,21.092612749664113,37.62654724563979
4.910768695524894,0.9990674564296593,0.599560623333673,0.21896139733071385,4.842639794922434,0.24386939173820743,10.996190080069937,121.02565531234679,4.30761730321683,1.745992551614671,23.330867540091276,38.10207003503022
5.180565510760061,1.0239848039092672,0.6163795894099167,0.23202340438199456,5.11404572497122,0.25001589320278006,10.995012152474374,121.03014935766036,4.481862815853674,1.7560550066084655,25.569568136474118,38.6113088588863
5.450484990957193,1.0494847382358374,0.63400506938342,0.2448149144991624,5.3844712196150795,0.2574958675397331,10.99385290441569,121.03470093517632,4.654966696631163,1.7699046686290647,27.808708265423775,39.153695272860496
5.718994796741754,1.0749883385175463,0.6523923982313136,0.25727007281411807,5.653690483770333,0.2641329490937114,10.992713097250089,121.03917284801253,4.82678527146345,1.78180247983454,30.04828531248495,39.72688454688472
5.9859256179770455,1.1002263054613335,0.6715011304913787,0.269631175193516,5.921506608021446,0.27198217644431866,10.991593218059279,121.0437396755603,4.99716210499173,1.7992477426571036,32.28829150320962,40.33089539680994
6.251774207456037,1.1251552549532644,0.6912940055335639,0.28185659746025654,6.188070158823393,0.27936984551765137,10.990494041820057,121.04834705401103,5.166267523658462,1.817583715076137,34.52872529812157,40.964004466669735
6.51723722810857,1.1498484244351632,0.7117377787799342,0.2938660693913178,6.453805304365233,0.28550310679209057,10.989416150609031,121.05291965930324,5.334535056725144,1.8348808453625929,36.76958292815834,41.624240452415904
6.781154379015788,1.173973071852034,0.7328031930810539,0.305920655283498,6.718344449065626,0.29335508433882657,10.98836008051876,121.05750230676578,5.501601395313628,1.8542943111588002,39.01085760910064,42.310717217322974
7.044685694621876,1.1977520637776833,0.7544623285793932,0.3177328267963748,6.982084312941879,0.2986301207154674,10.987326448666863,121.06209621365714,5.667865054041613,1.8752465547479364,41.252544107846916,43.02219720692843
7.305347939953208,1.2205834039951482,0.7766907749610255,0.3295092594805555,7.243981995852664,0.3049112506819745,10.986315887770616,121.06669458352806,5.832283784286119,1.8973127518556487,43.49463697522879,43.75739707346058
7.565966548398137,1.243166220687647,0.7994635415088851,0.3411523676328622,7.504929181421176,0.310189829170008,10.985328865936026,121.07132083583684,5.995749295165297,1.9213268537171584,45.73713062051684,44.51539223157778
7.825490231625736,1.2652818537624766,0.8227594817581121,0.3525575780295684,7.764846422011033,0.31381994887234643,10.984365993761458,121.07592483367655,6.158181919599883,1.9450245381271585,47.980019895359874,45.29450372201435
8.08407033723779,1.2870018275935569,0.8465588536055293,0.36417556092252906,8.023769966792315,0.32151589076328546,10.983427750994451,121.08049463257461,6.3196176117053255,1.969048414221522,50.2232977184467,46.09349192610307
8.341547180898488,1.308319421450111,0.8708429209946189,0.37571032749274813,8.281638506101444,0.3269671828488965,10.982514650560915,121.08511151271624,6.47999465605244,1.9967598639585968,52.46695639798418,46.91225587345481
8.59831246198155,1.329359886602703,0.8955945550696924,0.3872319158302028,8.53861746005714,0.33242378950803747,10.981627334840596,121.08963243751066,6.639478216180578,2.0211412154022765,54.71099106222391,47.7480855298745
8.85223279776983,1.3496112475087383,0.9207978610938881,0.3985953194900763,8.793723127106205,0.33608780740522054,10.980766135267913,121.09425681848879,6.797084282967262,2.0524810109070084,56.95539144426584,48.602467901136855
9.10254921275191,1.3688979598849857,0.9464363968290854,0.4099053916607298,9.046084371162578,0.34024866862439024,10.979931707726792,121.09884261978733,6.951941591803916,2.081183135184943,59.200154666788876,49.47273288839084
9.352973761968315,1.3881868715582737,0.9724931796372402,0.42129037243734013,9.297121935756877,0.3458367415864227,10.979124081437476,121.10353805494827,7.105470595299266,2.1152324810524554,61.445272747427225,50.35993060218585
9.601719303289428,1.4070611596144358,0.99895449669566,0.4325950630878908,9.546652924269438,0.3498631880092416,10.97834388865158,121.10820025667587,7.257488130708225,2.146095010368887,63.6907426957041,51.2613888933212
9.849473494337872,1.4257068704800762,1.02580731571652,0.44389532116332503,9.794929886469617,0.35423941318899854,10.977591304341331,121.11291367316768,7.408246503211558,2.179878955872305,65.9365562107414,52.17746310964597
10.09459899761714,1.4437130116171295,1.053039610356791,0.45524912397459,10.041260656202212,0.359289137546097,10.976866821874864,121.11759950820208,7.557053382159211,2.2120902351409852,68.18270790297538,53.10635423415625
10.338946440955624,1.461551450461581,1.080638969928259,0.46662154115195775,10.286224670009688,0.36399181368833733,10.976170577574521,121.12232956501565,7.704488029703498,2.247119217936168,70.42918959353119,54.048363962454225
10.580595165723935,1.478743867325364,1.1085945444356184,0.47796804791695,10.529151504160836,0.3679665985702033,10.975503025576472,121.12703940648628,7.849879930727184,2.280994382033528,72.67599550168961,55.001935895006
10.823199713602662,1.4961987016118303,1.1368951171461958,0.48937031798306935,10.771533377701417,0.37266072016997703,10.974864264833741,121.13172585033277,7.994721217663027,2.31495834475627,74.92311758175492,55.96640337333119
11.061665181070566,1.5126087507838248,1.1655320282734465,0.5008561467527368,11.011569148628041,0.37782926673375195,10.974254732369445,121.13648522940332,8.137210684129968,2.3530520152434526,77.1705471854657,56.942578462674994
11.299038182245567,1.5286726979982375,1.1944946155708749,0.5124503905075585,11.249881715979427,0.38336840866129557,10.97367472818587,121.14127933002014,8.27797122031916,2.391189016396342,79.41827957052737,57.929357873778166
11.5374642603565,1.5448742504948336,1.2237735701201018,0.5241134997242747,11.487855470506474,0.3884579698967039,10.973124428768642,121.14607820225172,8.418387152953073,2.428664298052147,81.66630832757801,58.925779908119125
11.77317876345478,1.5602368837247287,1.2533618401794229,0.5357385548068657,11.724300425732508,0.392032248531446,10.972604236798361,121.15084712706468,8.557268450269476,2.4651202759172492,83.91462554316968,59.930831670856406
12.008710175286978,1.5753550104380987,1.2832512153254356,0.5473716957393735,11.9598859034013,0.3957292585721006,10.972114282427356,121.15559522944972,8.695284517481923,2.502064338565073,86.1632222365588,60.94418705347751
12.246804834110662,1.5909750887268364,1.313434610638069,0.5590487679644811,12.19631988927722,0.3998598847846602,10.971654907800257,121.16047629056166,8.834143425221555,2.5453202294852697,88.41208954714239,61.9677692555687
12.48005118733272,1.6054012895356322,1.3439072969777044,0.5706492015210091,12.430750724859536,0.40248997940865794,10.971227158908732,121.16527293163423,8.970993614173494,2.5823470990461845,90.66122361831367,62.99780147149245
12.710622461512685,1.619259742604637,1.3746613911062013,0.5820888206233044,12.662839237134904,0.40350976327859384,10.97083072992973,121.17009133969978,9.105496009113267,2.6221885749527205,92.91061318200082,64.03555317533468
12.944774307310581,1.6341596644269374,1.4056889546627644,0.5940714842638215,12.895543746184558,0.41338238702057745,10.97046576149296,121.17494665487985,9.240609142347239,2.663606642341973,95.16025101952255,65.08089692328188
13.172971321735531,1.6478878218726432,1.4369853971002158,0.6056467576422971,13.12557614594698,0.4128980413456384,10.970132958726026,121.17982024004414,9.37304473342374,2.7050648173605856,97.41012957505882,66.13318898699369
13.397836786229163,1.660998394629116,1.4685432725818828,0.617306024510499,13.352603692095727,0.4162190771693039,10.969832201022655,121.18475585806213,9.50247045152355,2.7484686142864274,99.66024137753993,67.1928036913907
13.621111724991351,1.6738095242791684,1.5003545712970663,0.6290595818032634,13.577330860774964,0.42058666247355686,10.969563396880403,121.18967790904456,9.629590806434862,2.7897778983501484,101.9105806145817,68.25821267757297
13.849976819008589,1.6879210419218391,1.5324124771577772,0.640770580773505,13.803700370714068,0.42331315933026575,10.96932631591335,121.1945891315355,9.758348521078005,2.8309464289821515,104.16113858297467,69.32916968492614
14.078546037431806,1.7018490925060212,1.564714753330918,0.6524661079931617,14.030740601476282,0.42596964300099616,10.969121760688722,121.1995085106498,9.887772122398019,2.873105734501894,106.41190564073622,70.40570763697507
14.303984489757568,1.7148647064564704,1.5972581303794868,0.6643006250458244,14.25654836697504,0.43071505727073683,10.96895038895309,121.20443228875149,10.01595865667332,2.915648573996255,108.66287287138402,71.48750208343853
14.520847270265222,1.7257810358967813,1.6300373901613057,0.6760963901494721,14.477449757512659,0.4335098936429761,10.968812374863774,121.20943048258204,10.139234376023524,2.9611434952007802,110.91403156518936,72.57546433189559
14.742340911179781,1.7377825557943318,1.663043876120355,0.6879067405345388,14.698211080860347,0.4364629650290851,10.968707175692543,121.21443590760168,10.262365862959996,3.0050353604876427,113.16537652723491,73.66824158900397
14.962425416335464,1.7495980456417293,1.6962739981827326,0.6997880342147016,14.91819565417245,0.4402212597308038,10.968635050347075,121.21945049837456,10.38471652357839,3.048854313264457,115.41689895652235,74.76564418490231
15.18084729788825,1.7612851069925843,1.7297236270387657,0.7118721490513079,15.136958491522819,0.4460213922705132,10.968596206861548,121.22445580243864,10.505841515841894,3.0921941346038917,117.66859021410346,75.86715182406996
15.394530809018761,1.7722223157923407,1.7633882955415174,0.7237283614409281,15.352739369962364,0.4462687951343885,10.968590708216652,121.22946567291304,10.62398073298391,3.1361335096833676,119.92044105008245,76.97280118366207
15.610176770016551,1.7838798802906168,1.7972622031229548,0.735793577952798,15.568008434958756,0.45120549314868774,10.968618238694035,121.23454634902059,10.741604728391394,3.1828328216886583,122.17244320549071,78.08353005998647
15.82409245800227,1.7953327009372104,1.8313418109319173,0.747817772727273,15.7821547226049,0.45377872631321253,10.968679249985144,121.23964808182849,10.858102604281157,3.228574262833177,124.42459019646049,79.19830563146358
16.030927933752537,1.8052854444887938,1.8656233050860465,0.759912085720305,15.992197713349015,0.45730651926314203,10.968773762346245,121.24473577676521,10.970494076958857,3.2729828841398456,126.67687381058931,80.31635642139138
16.243225620593876,1.816472863208547,1.9001001450815238,0.7720369671147018,16.202918485738337,0.4604582108266207,10.968900970299728,121.24988531420156,11.08356040599756,3.3199768561577296,128.929285293445,81.43883127521202
16.453896017745137,1.827243101949101,1.934770408726763,0.7841681310775569,16.413162909913808,0.4631613494487169,10.969061604351737,121.25498179407901,11.19614765199367,3.3636099974679867,131.18181771598756,82.5635872190946
16.661852287128568,1.837378137969312,1.9696311783627607,0.7965293293749732,16.62181053776294,0.4689626222456296,10.969255625270307,121.26015028853872,11.307135584997013,3.4111321668513273,133.43445990420878,83.69265201166263
16.866627167910337,1.8468187461215875,2.004678529803641,0.8086839076809154,16.828067689202726,0.46923759071128424,10.969483263092116,121.26537191504961,11.415730700478889,3.45906431493845,135.68720562942326,84.8255531183511
17.06934374338016,1.8558613937536863,2.0399081716896035,0.8209943514384942,17.03209888469428,0.47330476419774814,10.969744250876829,121.2707205913745,11.522097927518189,3.5098913630921307,137.94004818052053,85.96344597335629
17.27451974945143,1.865552005789346,2.0753158571315,0.8333738498175224,17.236245528329164,0.477050619496283,10.970038554165512,121.2759623564634,11.628578736679628,3.5531790288215896,140.19298348203301,87.10209817682599
17.474977941717952,1.8743470656195906,2.1108995724935085,0.8457002382802847,17.438089731149375,0.4789319478822694,10.970365891233087,121.28129311312327,11.732755340752192,3.6017870293669345,142.4459983650595,88.24484441301796
17.680251692887396,1.8843204751603264,2.1466553361387923,0.8580910904674407,17.641189191956073,0.48201971525883225,10.970726394560188,121.28656740873825,11.838185819680803,3.646635203628341,144.69908749684691,89.38900144009955
17.8803479061462,1.8932707557909718,2.18258219078416,0.8705560256696814,17.842326364014298,0.4855643620753177,10.971120404894464,121.29184386773159,11.941652768175118,3.6927986567515836,146.9522392116487,90.53550299609603
18.0786959878169,1.9019201916712876,2.218676541466266,0.882859765205429,18.041607197839767,0.4857227024637799,10.971547791152261,121.29706176823278,12.043262463528663,3.737243516877296,149.2054448518902,91.68317233656333
18.27570774545893,1.9103372118248896,2.2549350634217262,0.8955965173933582,18.239290489349514,0.49377449863014256,10.97200817486737,121.30239641198942,12.1432741205208,3.7875353060575674,151.458693517372,92.8350357002413
18.468707563355565,1.9179424486843324,2.2913544845650904,0.9079570396946401,18.434168265666813,0.491851834335255,10.972501911688596,121.30770334298737,12.240479778964072,3.8342906613957766,153.71198065765202,93.98841329209623
18.667224335018545,1.9268525732576032,2.3279310362413526,0.9204148794324449,18.630400519352406,0.4943543986328126,10.973028159001842,121.31310292990719,12.339040011283942,3.884473787208396,155.96529676765203,95.14537298966003
18.85840617166832,1.934403559197711,2.36466404463863,0.933130289249512,18.82364168157801,0.5003868725106582,10.97358791041188,121.31850690008245,12.434609375544824,3.9325590271590185,158.21863584034145,96.3042357903347
19.05664525507018,1.9437497899281175,2.4015494477935135,0.9457831201205612,19.018915188964456,0.5025210775546968,10.974180372664705,121.32393244959218,12.532211354933679,3.9808157056156395,160.47198952548206,97.46523259342926
19.252171551343054,1.9528984730365524,2.438587349897716,0.9582546821065074,19.21384758129716,0.5018822139249687,10.97480644308962,121.32932500785518,12.629472866421565,4.0273689440322205,162.72534895688295,98.62729888483688
19.43473202176392,1.9597239573101366,2.475775984756183,0.9706490266134375,19.402125539258122,0.5020455990406256,10.975466138450429,121.33482453045734,12.720081041334197,4.078400729963708,164.97870361804962,99.79288831533431
19.62341604521498,1.9681911584708023,2.5131087439949624,0.983423483430604,19.590137207414955,0.5092716099078525,10.976158154662699,121.3402939415142,12.810424360446632,4.125884007292296,167.23204989545047,100.95944854787336
19.809314584359527,1.9763258073490788,2.5505838959943503,0.9962468924818872,19.7766225556843,0.5132864719463318,10.976882317103446,121.3457756395253,12.89924263395369,4.174042902499656,169.48537779785693,102.1276840063399
19.990520518738776,1.983628239832383,2.5881990017951466,1.0090201403579993,19.95999781927094,0.5149910885006216,10.977638471173123,121.35130376316386,12.984952416969463,4.223598977018581,171.73867925442755,103.29814969231036
20.171231427695602,1.990875068200672,2.6259504908812232,1.0216442083065442,20.141569869127125,0.5145492206449321,10.978426039451733,121.35689014363246,13.068860967410728,4.273954580807157,173.991947889328,104.47099695982688
20.35395648283884,1.9985204098483385,2.663835831277538,1.03454529396294,20.323246701154858,0.5200298335015356,10.979244776070118,121.36249652182441,13.15287662204355,4.32330146619369,176.24517762102187,105.64546499969943
20.538693563081324,2.0066022025423536,2.701853785838466,1.0474482457192296,20.505981641355902,0.52282539734004,10.980094839003868,121.36812355970231,13.23795264493674,4.3725185604610735,178.4983604568988,106.82150660273382
20.7270130882971,2.0155068180147717,2.7400039884378202,1.0602697145433158,20.69103635614738,0.5236764142091904,10.980976775754243,121.37377091395717,13.32535103103146,4.421789476132205,180.75148815847933,107.99905696378255
20.904867727309465,2.0223898074062725,2.7782869559596293,1.0731951096653356,20.872017981950194,0.5268865015638995,10.981891563045792,121.37938327359144,13.408679303014651,4.469353194756993,183.004551962018,109.17704554495673
21.07844523852691,2.0285882672802056,2.8166985801653937,1.086216300716113,21.048824115190655,0.5305338503961002,10.982837951160036,121.38502570285927,13.487835289211944,4.518677812373637,185.25754261016846,110.35662603208338
21.255291774403304,2.035697441049996,2.855234810092952,1.0988415539738383,21.22517667291686,0.5266482252458792,10.983815010404214,121.39068673766225,13.56654118327424,4.568093070067574,187.51045357435942,111.53754247931394
21.429349928162992,2.042416565038942,2.8938944187830202,1.11197806389493,21.399907600600272,0.5348704051269477,10.98482281214092,121.39643413634188,13.643629524623975,4.619797210486484,189.76327716559172,112.72099288948952
21.6063551469706,2.0498302351419473,2.9326750559266657,1.1249675293370418,21.575301337987185,0.5359632001120976,10.985861290479079,121.40223530803146,13.721384475473315,4.671063241399819,192.01600837521255,113.90632398695847
21.777007270604372,2.055957515088928,2.9715763126150705,1.1378445741716998,21.74784953473136,0.5357791096149459,10.986930819228292,121.40796618488545,13.796298145549372,4.718318758622445,194.26864048279822,115.09119774911018
21.946047828998417,2.0616760269545034,3.010595300293062,1.150983827447461,21.91816882463172,0.5410665985410613,10.988030216190964,121.41378478641374,13.868987500900403,4.769702035842299,196.52116311714053,116.27850570111814
22.112408697605133,2.0667261687471994,3.049729492980987,1.164228287599921,22.08603381877765,0.5452851069829218,10.989159405347891,121.41955739988265,13.939227188937366,4.817882228540945,198.77357182092965,117.4657287460744
22.279600703623146,2.071922389064715,3.0889763754676096,1.1773217476676248,22.25308716110885,0.5452374792417457,10.990317389951088,121.42540042132043,14.008660055929795,4.869013956189862,201.0258572921157,118.65499477593438
