coupler,coupler,$D^a [mM]$,$D^a [mM]$,$I_{islet}^a\ [pg/islet]$,$I_{islet}^a\ [pg/islet]$,$\gamma^b$,$\gamma^b$,$I_{cell}^b [pg/islet]$,$I_{cell}^b [pg/islet]$,$G^b [mM]$,$G^b [mM]$
2.696762793639209,1.0730048205154203,0.5037754067016067,0.07105984751777876,2.647855853952933,0.14178124224677147,11.004381649428979,120.98939271384259,2.696762793639209,0.4478720918081776,5.436810191196855,35.35626356182494
2.9783703784341924,0.9652048359494774,0.5116749635926681,0.10052190301027573,2.9660778329125606,0.1636085343394985,11.00303523405455,120.99392310223985,2.9783703784341924,0.5183212109664159,7.672386819147505,35.55931464234111
3.2582498947158456,0.925651765543086,0.5212495078885695,0.12344200572613252,3.249769365764223,0.1732647435202952,11.001708684139885,120.9984522880495,3.2582498947158456,0.5446832374869535,9.908420046675019,35.804248390298724
3.536624928470701,0.914542032935534,0.532174699314055,0.1429247768552316,3.5286490434082225,0.18069889897811506,11.000403280486353,121.00299489670536,3.536624928470701,0.5705894897106282,12.144905000808649,36.09026328631998
3.8134227318223566,0.9190632056144185,0.544317570340354,0.16054978874879783,3.805624187574722,0.18918283951428316,10.999120774213225,121.0076326258812,3.8134227318223566,0.6007034260313038,14.38183691620361,36.41671776005558
4.090087610296905,0.9329006689566036,0.5575776728219353,0.17690967763730048,4.08228579396382,0.1973725276281506,10.997862946707755,121.01217154478636,4.090087610296905,0.6171349663681341,16.619213523808867,36.7818368789508
4.365623693098314,0.9523242320378469,0.5718752970715286,0.1919509311099898,4.357896981178783,0.20250912208051994,10.996631428715773,121.01670622264491,4.365623693098314,0.6388795203114397,18.8570246307645,37.18482333459605
4.6396248346427456,0.9749470219837941,0.5871392169356113,0.20636510908964198,4.63201874459628,0.21014901124892654,10.9954280173406,121.02126028695946,4.6396248346427456,0.6615072997644487,21.095263284631073,37.62459270767564
4.910768695524894,0.9990674564296593,0.6033049177058274,0.22019937239238857,4.903417304973118,0.21679222501306414,10.994254377204925,121.02586088780059,4.910768695524894,0.6854765454275292,23.333923004800454,38.100069224594066
5.180565510760061,1.0239848039092672,0.6203123973245965,0.23330438605852416,5.173328682081774,0.22085383039799217,10.99311199807562,121.03028568886003,5.180565510760061,0.6916665607309146,25.572998189134523,38.608521145140806
5.450484990957193,1.0494847382358374,0.6381123035098426,0.246079292165046,5.443199388100766,0.22708039143414158,10.992002183105797,121.03485204861927,5.450484990957193,0.7217377855022269,27.81247434625402,39.15073019806325
5.718994796741754,1.0749883385175463,0.6566638950171182,0.2588440635177312,5.711795121314935,0.23558223393588912,10.990927086211741,121.03935594834701,5.718994796741754,0.7352715898877604,30.052347717806697,39.72392411696513
5.9859256179770455,1.1002263054613335,0.6759272069757571,0.2711199078291669,5.978840209892951,0.2390576880247865,10.989887987961993,121.04391894397224,5.9859256179770455,0.7581412106427141,32.29260695260018,40.32770842089897
6.251774207456037,1.1251552549532644,0.6958661775133805,0.2836801650186382,6.244754258659668,0.24943144398078215,10.988886546925642,121.04852933867309,6.251774207456037,0.7797020886839152,34.533244812861085,40.960705941336954
6.51723722810857,1.1498484244351632,0.7164479041093728,0.29573411086753437,6.510206371778622,0.25160654417680434,10.987924296176061,121.05308312182254,6.51723722810857,0.791971965522727,36.774253020994365,41.62069496131466
6.781154379015788,1.173973071852034,0.7376452595490264,0.3077429743220544,6.774219247512519,0.25786273749337907,10.987002690788358,121.05761693095747,6.781154379015788,0.8068866699491665,39.01561888679862,42.30670161836163
7.044685694621876,1.1977520637776833,0.7594301076460397,0.3194755913224166,7.037739287130535,0.2612553247077772,10.986123217619024,121.06219339359035,7.044685694621876,0.8269748840244633,41.25733098667115,43.01808854568276
7.305347939953208,1.2205834039951482,0.7817791558481986,0.33109929409149197,7.29862629971467,0.2660271754790512,10.985287578194402,121.06673700983691,7.305347939953208,0.8399099723343662,43.49937942344695,43.752885860685026
7.565966548398137,1.243166220687647,0.804666195588652,0.3428908450300658,7.559209226863459,0.2737035243927858,10.984496796038002,121.07131533635673,7.565966548398137,0.8586173044509331,45.74175174953416,44.510628954949695
7.825490231625736,1.2652818537624766,0.8280715124274138,0.3545553105445553,7.818774899234995,0.27782120328230514,10.983752605505288,121.0758416271423,7.825490231625736,0.8688664605119588,47.98443692456931,45.289242037786714
8.08407033723779,1.2870018275935569,0.851975851226598,0.3658655040212351,8.077388268196955,0.27878030239098883,10.983056253637187,121.08046796964821,8.08407033723779,0.8934025469780237,50.2274205442518,46.089359882542105
8.341547180898488,1.308319421450111,0.8763613523042295,0.37730054618948217,8.334912140155211,0.28523294694292284,10.982409468269907,121.0849985045398,8.341547180898488,0.8986369612911003,52.47069331491366,46.90767895840361
8.59831246198155,1.329359886602703,0.9012105581932701,0.38860679042294055,8.591685423860326,0.28841846271170307,10.981813219259493,121.08957886129674,8.59831246198155,0.917885292702929,54.714238413609564,47.74493062838067
8.85223279776983,1.3496112475087383,0.9265082496858668,0.4002154293760987,8.84582199738361,0.29689143304746973,10.981269250856712,121.09402662251013,8.85223279776983,0.9183594089560905,56.95804390590638,48.59792498541317
9.10254921275191,1.3688979598849857,0.9522365029260982,0.41149509412309887,9.096450242912397,0.29717009454954124,10.980778126511723,121.09865263319507,9.10254921275191,0.9503508280390809,59.20209135487676,49.46966293635467
9.352973761968315,1.3881868715582737,0.9783778604178224,0.42304920491813813,9.34682385972701,0.30497319414073526,10.980341303395107,121.10315930539083,9.352973761968315,0.9512214386056451,61.44637362565845,50.35549035659406
9.601719303289428,1.4070611596144358,1.00492028487497,0.43458235395610334,9.595659899292514,0.3089324460668504,10.979959603399038,121.10769679775666,9.601719303289428,0.96754614146942,63.69087135698646,51.25654743804872
9.849473494337872,1.4257068704800762,1.0318509958742652,0.4459330667844082,9.84344896231778,0.3104895975836185,10.979634497547522,121.11221739714344,9.849473494337872,0.9785365586190621,65.93557088356465,52.17143287420069
10.09459899761714,1.4437130116171295,1.0591585858201142,0.4574040498945994,10.08876654645428,0.31596035798801386,10.979367103544064,121.11667661029779,10.09459899761714,0.9843615581991193,68.18045623227954,53.09880713679338
10.338946440955624,1.461551450461581,1.086829872278031,0.46876895807398866,10.333135809516534,0.31823976336223114,10.979158141068183,121.12114322931053,10.338946440955624,0.9973929657599031,70.42550992779434,54.03892839198881
10.580595165723935,1.478743867325364,1.1148548976052552,0.4801096962312891,10.574980512727052,0.32146683188793546,10.979009016999044,121.12568398982806,10.580595165723935,1.0177637023448913,72.6707162708044,54.99209240971557
10.823199713602662,1.4961987016118303,1.143221814854769,0.49183107845062835,10.817432148382068,0.3303252578546966,10.978920659283176,121.13019615208533,10.823199713602662,1.026367715217353,74.9160621445626,55.95622626464809
11.061665181070566,1.5126087507838248,1.1719234834890813,0.5033031035126709,11.056218519806862,0.33035145817008355,10.978894421714358,121.1347235201132,11.061665181070566,1.0398391503534636,77.16152941342443,56.93138299435908
11.299038182245567,1.5286726979982375,1.2009479410771746,0.5147351798777088,11.293654342414811,0.33302942593122575,10.978930745390244,121.13927540475832,11.299038182245567,1.0540955086534958,79.40710257459432,57.91715487343885
11.5374642603565,1.5448742504948336,1.230286408768734,0.5263357691577037,11.531902132788673,0.3386742088531136,10.979030711925589,121.14381256428895,11.5374642603565,1.0636390521013408,81.6527654454112,58.91244501119612
11.77317876345478,1.5602368837247287,1.2599332773825154,0.5378687269754792,11.76778999203816,0.3408957037579718,10.979195839026943,121.1482155665034,11.77317876345478,1.0588079206177412,83.89849959965795,59.91496946724469
12.008710175286978,1.5753550104380987,1.2898793990316335,0.5493501446039288,12.003276368835941,0.3431793215888015,10.97942635929212,121.15272755295148,12.008710175286978,1.0827371326854855,86.14428282156587,60.927954403048034
12.246804834110662,1.5909750887268364,1.3201183325145394,0.5607317672756934,12.241028854623437,0.34463345100209564,10.97972427716013,121.15723126271381,12.246804834110662,1.0925194234347788,88.39010102301836,61.949173045916034
12.48005118733272,1.6054012895356322,1.3506471488799434,0.5723798136711203,12.474643802735955,0.35156061542556255,10.980091309174895,121.16174018012879,12.48005118733272,1.103940102052956,90.63593447953463,62.97842495346584
12.710622461512685,1.619259742604637,1.38145518215606,0.5841815851022986,12.705436830874532,0.3568263289132589,10.980527407722548,121.16631255563338,12.710622461512685,1.1222199298988824,92.88176556769758,64.01623430903665
12.944774307310581,1.6341596644269374,1.412534023547778,0.5958480050994374,12.939169574528933,0.3576451728450414,10.981033244985156,121.17073235679909,12.944774307310581,1.1134816283154907,95.12757819332182,65.05883413637993
13.172971321735531,1.6478878218726432,1.4438822966476437,0.607529599341531,13.16783635923639,0.3606536527202369,10.98161047801841,121.17524596677764,13.172971321735531,1.13554810721891,97.37334645912051,66.10979238711256
13.397836786229163,1.660998394629116,1.4754894190700725,0.6192957167134523,13.392997578717768,0.36464688107028437,10.982259364449419,121.1798022660982,13.397836786229163,1.150909007788528,99.61905566602945,67.16796525150212
13.621111724991351,1.6738095242791684,1.5073470342031214,0.63105188715939,13.616376239340752,0.36712248272570625,10.982979909749702,121.18439241096672,13.621111724991351,1.164981136597199,101.8646883815527,68.23290235552022
13.849976819008589,1.6879210419218391,1.5394490731996484,0.6429087874825026,13.844607285689563,0.3712449384184569,10.983772772946395,121.1889343164003,13.849976819008589,1.1684432132773912,104.11022646352649,69.30298135650403
14.078546037431806,1.7018490925060212,1.5717966911324766,0.654794756677977,14.073056785855442,0.3743243983860246,10.984640695154667,121.19341791032898,14.078546037431806,1.170610344528905,106.3556465357542,70.3777655433741
14.303984489757568,1.7148647064564704,1.6043861292419024,0.6667408748622654,14.29870996112004,0.37785872041727947,10.985584796289913,121.19785881774946,14.303984489757568,1.1745737651261965,108.60092578269541,71.45725464486368
14.520847270265222,1.7257810358967813,1.6372105893096887,0.6786202176300068,14.516364926937968,0.37932767493984026,10.986605299869552,121.20239857878319,14.520847270265222,1.197015923956804,110.84604242816567,72.54354295950903
14.742340911179781,1.7377825557943318,1.6702583031146787,0.6908232114152579,14.737387389410287,0.38682876876207783,10.987700971541926,121.20689218852098,14.742340911179781,1.1998763397628764,113.09098127111793,73.63398361844838
14.962425416335464,1.7495980456417293,1.7035291651263833,0.7026892914940677,14.957477991934866,0.38395719234830744,10.988874005386606,121.21132928808817,14.962425416335464,1.201329081545173,115.33571855723858,74.72818677116705
15.18084729788825,1.7612851069925843,1.7370191997033544,0.7147418634555899,15.1759785967879,0.3892317648459215,10.990125031210482,121.21584135904183,15.18084729788825,1.2204021733570152,117.58023122139275,75.828153839543
15.394530809018761,1.7722223157923407,1.7707234481931664,0.7268947689840561,15.390055289957672,0.39320752240000395,10.991455112118274,121.2203160147981,15.394530809018761,1.2241232900916752,119.82450091093779,76.93178633103213
15.610176770016551,1.7838798802906168,1.804634631902445,0.7390544179202799,15.605455414857715,0.39560369838794335,10.992863201303408,121.22485534168787,15.610176770016551,1.2415324981288716,122.06850573979318,78.04062859958213
15.82409245800227,1.7953327009372104,1.8387511823675595,0.7511391144698574,15.819430290255696,0.39663769997430537,10.994351522880606,121.2293354824798,15.82409245800227,1.2419643640908882,124.3122259452939,79.15239041581846
16.030927933752537,1.8052854444887938,1.8730689837248065,0.7632686511265278,16.026890073437244,0.399547437148883,10.99592003331054,121.23391750759835,16.030927933752537,1.264521594086969,126.55563771910965,80.26965919752494
16.243225620593876,1.816472863208547,1.90757927991217,0.775324203892646,16.23861400829628,0.400420970147733,10.99756778019946,121.23849822516046,16.243225620593876,1.2725106499383556,128.79872460849583,81.39049525629235
16.453896017745137,1.827243101949101,1.9422835216391832,0.7874248515087765,16.449299471918494,0.40325033621271383,10.999297462636605,121.24304668979137,16.453896017745137,1.276319847760618,131.04146322607994,82.5142142178021
16.661852287128568,1.837378137969312,1.977178217493929,0.7995639584701394,16.657438071910292,0.4059680048151244,11.001109393197112,121.24766944626971,16.661852287128568,1.294940810094762,133.2838302999735,83.64251493406881
16.866627167910337,1.8468187461215875,2.012258686067071,0.8120593756011322,16.862458426039666,0.41393028676856897,11.003004007041454,121.25218219600511,16.866627167910337,1.2874183915605566,135.5258066356182,84.772057862173
17.06934374338016,1.8558613937536863,2.0475197739433497,0.8243705290385106,17.065314256120473,0.4129996626913021,11.00498025259003,121.25677023882172,17.06934374338016,1.305978578436191,137.76736638508737,85.90594631684034
17.27451974945143,1.865552005789346,2.0829576134565286,0.8367356768353158,17.270166812930256,0.41584814255864716,11.007039099582471,121.2613584276931,17.27451974945143,1.3137310690450352,140.0084904488176,87.04273615412185
17.474977941717952,1.8743470656195906,2.118571744125802,0.8492782504661119,17.4709727675654,0.4208266806468384,11.009182206355035,121.26582182091657,17.474977941717952,1.3034082370250957,142.24915547668934,88.18012324264598
17.680251692887396,1.8843204751603264,2.1543566195759922,0.8616698468318055,17.675707827787846,0.42028917646325964,11.011408047983423,121.27031820458082,17.680251692887396,1.3156811145748775,144.48933513835073,89.32077750371171
17.8803479061462,1.8932707557909718,2.1903136856271885,0.8739699222001805,17.876175760291517,0.42066224814620035,11.013720317743719,121.27488755146123,17.8803479061462,1.333970251280149,146.7290066499263,90.46528966658893
18.0786959878169,1.9019201916712876,2.226437410863582,0.8866102079836137,18.074643422849476,0.4282884107729342,11.016118005965836,121.27941831698652,18.0786959878169,1.335706945879814,148.96815045922995,91.61157989358576
18.27570774545893,1.9103372118248896,2.2627241597510874,0.8989038912953745,18.27170818625018,0.42434375117030937,11.01860079052858,121.28401535774897,18.27570774545893,1.3527608925425032,151.20674232579768,92.76140879288346
18.468707563355565,1.9179424486843324,2.2991712382645346,0.9112388862102637,18.465021652635187,0.4267754505941892,11.021169520914555,121.28854065882808,18.468707563355565,1.3493306353829027,153.44476176053286,93.91222769652462
18.667224335018545,1.9268525732576032,2.3357738030026667,0.9237054162970176,18.6629250603728,0.43078178312239207,11.02382269653026,121.29299885147293,18.667224335018545,1.3462094332749641,155.6821838989854,95.06403875713457
18.85840617166832,1.934403559197711,2.3725338400690816,0.9362921473922843,18.85468586301431,0.43468250606982956,11.026563672698103,121.29760039117157,18.85840617166832,1.3748719882852143,157.91898178495467,96.22051177915402
19.05664525507018,1.9437497899281175,2.4094448759569786,0.9489216437401035,19.052183758001775,0.4371957050879181,11.02939111739397,121.30201663475074,19.05664525507018,1.353642200129793,160.1551387514919,97.37568175454109
19.252171551343054,1.9528984730365524,2.446509859059006,0.9616065655383664,19.2478136876598,0.4399781672669885,11.032307493733242,121.30651045009877,19.252171551343054,1.3724863141101111,162.3906227312982,98.53419469335824
19.43473202176392,1.9597239573101366,2.4837257614708506,0.9744369495948217,19.431587424129248,0.4442998092417941,11.03531379380729,121.31113998270602,19.43473202176392,1.400026884531474,164.62541316449642,99.6970054685171
19.62341604521498,1.9681911584708023,2.5210820161155425,0.9870075384734264,19.61968659935519,0.44149033435697066,11.03840521723032,121.3157246438051,19.62341604521498,1.3996515015656574,166.85949417203665,100.8607824262082
19.809314584359527,1.9763258073490788,2.5585806813905947,0.9995931723962083,19.80571121443063,0.4433556107571353,11.041584498132579,121.3202192089752,19.809314584359527,1.3923725838803998,169.09283948503435,102.02465044100659
19.990520518738776,1.983628239832383,2.5962187710101716,1.0123432254372189,19.987304888665676,0.447857445832619,11.044850942213088,121.32470458814907,19.990520518738776,1.39734654025617,171.325422918424,103.19001295761255
20.171231427695602,1.990875068200672,2.6339916613069363,1.0252234017136908,20.168009859044105,0.4517624989474692,11.048203539918177,121.32934502012482,20.171231427695602,1.4275949830565373,173.55722197704017,104.35976950218024
20.35395648283884,1.9985204098483385,2.6718974920804612,1.0381340391200213,20.35043859342113,0.4539303626993908,11.051643692189828,121.33395644198461,20.35395648283884,1.4293538605208427,175.78821926005185,105.53051234008419
20.538693563081324,2.0066022025423536,2.7099363579181954,1.050802768002382,20.534850443247706,0.4512919974971026,11.055172197753564,121.338476607081,20.538693563081324,1.4213409182046988,178.018389666453,106.70106170904053
20.7270130882971,2.0155068180147717,2.748108573316131,1.0634453716638108,20.72268465021625,0.45235379848117446,11.05879050353542,121.34304536753737,20.7270130882971,1.4352286851563798,180.24770564958453,107.87390802571244
20.904867727309465,2.0223898074062725,2.786415327398572,1.0761811764364535,20.9014426083304,0.45559928910166775,11.06250194099266,121.34754641398202,20.904867727309465,1.4308617116140527,182.47614401578903,109.0468805039718
21.07844523852691,2.0285882672802056,2.824848956952337,1.0890882141844802,21.075443441513926,0.46016825028078534,11.066301514976658,121.35213858829968,21.07844523852691,1.451244950654579,184.7036803085357,110.22282156966091
21.255291774403304,2.035697441049996,2.8634050255059265,1.102187940191929,21.251910627353936,0.4651030385000768,11.070188680663705,121.35675850897361,21.255291774403304,1.4614300794764752,186.93029563128948,111.40051537244543
21.429349928162992,2.042416565038942,2.902084235684015,1.1151017115686581,21.426114874426275,0.4633802888828872,11.074165465077385,121.36137537648693,21.429349928162992,1.4668332152496217,189.15596674010158,112.5793493917657
21.6063551469706,2.0498302351419473,2.940884108946193,1.128132412211485,21.602745104115456,0.46690718737045817,11.07823102362454,121.36598382585976,21.6063551469706,1.4712472386637812,191.38067052327096,113.75918032092368
21.777007270604372,2.055957515088928,2.9798052494297735,1.141080186703347,21.773900102823973,0.46695641200922416,11.082387565402314,121.37050757620813,21.777007270604372,1.463431107447517,193.6043824478984,114.93857362319422
21.946047828998417,2.0616760269545034,3.018843004188966,1.1540158999308956,21.943057108204812,0.4681499762036858,11.086632106686011,121.37504520669471,21.946047828998417,1.4712027281389013,195.82707716338336,116.11929904193899
22.112408697605133,2.0667261687471994,3.0579950984101743,1.16713588203344,22.10960254399106,0.4728563253691701,11.090965047595091,121.37962195286829,22.112408697605133,1.482997551866368,198.04873255826533,117.3017743009502
22.279600703623146,2.071922389064715,3.09725885768421,1.180215354466588,22.2766348477453,0.4735610422915152,11.095385797438212,121.38417417296228,22.279600703623146,1.4843517311645065,200.26932745799422,118.4847894120331
