coupler,coupler,$D^a [mM]$,$D^a [mM]$,$I_{islet}^a\ [pg/islet]$,$I_{islet}^a\ [pg/islet]$,$\gamma^b$,$\gamma^b$,$I_{cell}^b [pg/islet]$,$I_{cell}^b [pg/islet]$,$G^b [mM]$,$G^b [mM]$
2.696762793639209,1.0730048205154203,0.5037754067016067,0.07110541070362135,2.550041976326611,0.14198532424347735,11.004381649428979,120.9893663366987,2.662728616996901,2.2503583118088684,5.436810191196855,35.35623730355494
2.9783703784341924,0.9652048359494774,0.5111172830947908,0.10061471737106212,2.912148578383494,0.1657150427707284,11.003091044491157,120.99392591754236,2.9726587104669306,0.5903885637375618,7.672395271656569,35.5593838393961
3.2582498947158456,0.925651765543086,0.5204193585086614,0.12316085001033239,3.2166343204444274,0.1766770493895751,11.00176504033152,120.99846258647494,3.2457612382713705,0.5755901169651378,9.908414821256883,35.80438508790747
3.536624928470701,0.914542032935534,0.5311918904044433,0.14312438183818363,3.5027638655155897,0.1888562423166655,11.000459081376903,121.00299282562105,3.513825086527504,0.5981969401782709,12.144888082635589,36.090413479179276
3.8134227318223566,0.9190632056144185,0.543223909495282,0.16055893999449683,3.782269981573336,0.19526088553872825,10.999175042030402,121.00752238968548,3.7799635686096735,0.6202449951004141,14.381810858962126,36.41652245285332
4.090087610296905,0.9329006689566036,0.5563916585961124,0.17658470870812057,4.059685273445211,0.2026273782900497,10.997914468869567,121.01206599636043,4.0457879024907015,0.642387418687726,16.619177773362026,36.78171607659958
4.365623693098314,0.9523242320378469,0.5706061493401648,0.19185219610357684,4.335673527093604,0.21154175488437582,10.996679034200497,121.01653432544381,4.310562956961803,0.6579360134970573,18.856983102625236,37.18442956657906
4.6396248346427456,0.9749470219837941,0.5857929210033035,0.20625240900056382,4.610150377382524,0.2181800866625067,10.99547022418119,121.02116498398507,4.573849705804605,0.688946115763312,21.095217624679208,37.62467662290291
4.910768695524894,0.9990674564296593,0.601887384269503,0.22003110136056725,4.882165512186475,0.22478508892399604,10.994289800757542,121.0257018262726,4.8344141857814975,0.7018875872975093,23.333880435675383,38.099812560940556
5.180565510760061,1.0239848039092672,0.6188294896419393,0.23319305514370975,5.152491578948684,0.23012512766648316,10.993138820398599,121.03026644675295,5.093492209096439,0.72253555795479,25.57296120049432,38.60924406821805
5.450484990957193,1.0494847382358374,0.6365685118216788,0.24586600836014352,5.422389693441801,0.23524829745527653,10.99201885832008,121.03474661000845,5.352530148462392,0.734321386252269,27.81245333235711,39.15086605725911
5.718994796741754,1.0749883385175463,0.6550624801166123,0.25850552715190206,5.691166004515253,0.24354513363551858,10.990931365056895,121.03931151446527,5.610293556528632,0.7584927138357526,30.052345351316035,39.72456606094273
5.9859256179770455,1.1002263054613335,0.6742713891726453,0.27102266264233216,5.95849426148925,0.2509128012488079,10.989877995103598,121.0439075642476,5.866506666236091,0.7783709599710377,32.292631840799004,40.328644183045135
6.251774207456037,1.1251552549532644,0.6941587217588676,0.2832393001573392,6.224624663125724,0.2560075483458825,10.988860049867071,121.04844898032758,6.121588993992191,0.7909027722377702,34.533305048942566,40.961053635133666
6.51723722810857,1.1498484244351632,0.714692050445592,0.2950892848107016,6.490120241884142,0.2596004452372635,10.987878800951876,121.05296224100383,6.376209531445056,0.8049731529447124,36.774353637360036,41.620683741345516
6.781154379015788,1.173973071852034,0.7358429792075185,0.3069130394205852,6.754337971098721,0.2659828711635691,10.986935763037764,121.05747895445342,6.629390945890918,0.8213388222288597,39.01576667232439,42.30653434529681
7.044685694621876,1.1977520637776833,0.7575836633768631,0.31856662537385194,7.017897267593071,0.27077839124420566,10.98603230342269,121.06208955198855,6.882079588365741,0.8452316896028238,41.25753422360867,43.01826202520804
7.305347939953208,1.2205834039951482,0.7798901923379162,0.33039077532199157,7.279245927929878,0.27880359238159663,10.985170026542619,121.0666060679005,7.132135224645026,0.8525913852906158,43.499648969154805,43.75276000123498
7.565966548398137,1.243166220687647,0.8027369372721296,0.34197566297460863,7.5398963552434,0.2824035163486647,10.984349683509208,121.07108238639141,7.38188674999401,0.8639144761855979,45.74209693958983,44.50937854956773
7.825490231625736,1.2652818537624766,0.8261037915071938,0.35349051223383376,7.799566549481824,0.2871459177034058,10.983572791446932,121.07558866206409,7.6306209593312815,0.8813881972855756,47.98486523423344,45.28774761694105
8.08407033723779,1.2870018275935569,0.8499711139011197,0.36515227347664936,8.05827805888839,0.2942873799915823,10.982840787153691,121.08009931288058,7.878402801346965,0.8963413657305727,50.22794327465817,46.086505196210716
8.341547180898488,1.308319421450111,0.8743205764330924,0.3764526619256426,8.315925786271691,0.2954805826467935,10.98215491976589,121.08463464449649,8.12509509245865,0.9129623124460889,52.47131913108751,46.904854995726176
8.59831246198155,1.329359886602703,0.8991354232130107,0.38794098268072275,8.57275248132646,0.3024033447857156,10.981516484171152,121.08916817595085,8.371036706026644,0.9268608174961843,54.71498130727559,47.74149491494529
8.85223279776983,1.3496112475087383,0.9243996631994378,0.39954570321093574,8.82733784080483,0.30891733918397046,10.980926729156636,121.09369616816686,8.614341527689248,0.940136620691466,56.95891687087715,48.59543221584862
9.10254921275191,1.3688979598849857,0.9500962950114626,0.41111843113983615,9.078724636463448,0.3134446395756341,10.980386544251814,121.09826867027343,8.854137925780378,0.9580531047125489,59.20311291702092,49.466400917857506
9.352973761968315,1.3881868715582737,0.9762079216015991,0.42271572964972487,9.32922426587902,0.31831025289293685,10.9798967075767,121.1028831071343,9.093679639161564,0.9755162673027369,61.447558359242976,50.353527434857824
9.601719303289428,1.4070611596144358,1.0027217732276767,0.43408063731508917,9.578279325505719,0.3197701534268162,10.979458536021411,121.10746554622142,9.331683673313819,0.9854066094091838,63.69224088266492,51.25503511290365
9.849473494337872,1.4257068704800762,1.0296251302061137,0.44553121007832924,9.826204022625461,0.3247991167633459,10.979072885005735,121.11202319190579,9.56864066561684,0.9956437605152004,65.9371454641223,52.170243775866446
10.09459899761714,1.4437130116171295,1.0569060998677742,0.45671548144111435,10.071946665877476,0.32539360500982556,10.978740876540542,121.11658818541724,9.80312614084687,1.0089864755730642,68.18225700221956,53.098860539208154
10.338946440955624,1.461551450461581,1.0845522759773303,0.467944523155075,10.316487231059,0.32948841201881685,10.978463345905766,121.12102797937547,10.036663284758106,1.007999414017223,70.42756158579141,54.03835419960994
10.580595165723935,1.478743867325364,1.1125529560085852,0.4793191710227665,10.558775422396138,0.33518965566085857,10.978241037228145,121.125642579993,10.267675883951597,1.0386866254022094,72.6730398805812,54.992290858333
10.823199713602662,1.4961987016118303,1.14089660384343,0.49052473534841873,10.8010544560384,0.33666639024561684,10.978075405932032,121.13025410866193,10.499295489047654,1.0505257994351944,74.91868360806257,55.957536327052544
11.061665181070566,1.5126087507838248,1.1695756047556642,0.5018706201537431,11.040430910419673,0.3418956501642463,10.977967419894412,121.13480606429181,10.727249869843945,1.055902790217145,77.16447683330625,56.93268959595392
11.299038182245567,1.5286726979982375,1.1985784671560396,0.5134411919406786,11.278169533004984,0.34858762893279127,10.977917261654511,121.13935636481169,10.953853838611394,1.0671907931661901,79.41040241532028,57.91804758163168
11.5374642603565,1.5448742504948336,1.2278960361436475,0.5249938830660804,11.516151753952727,0.35202503245298383,10.977925970451906,121.14391339068096,11.181269931141287,1.0793029853415579,81.65644464734942,58.913218285889954
11.77317876345478,1.5602368837247287,1.2575221864681225,0.5366248595499693,11.75230677635409,0.35645835137291876,10.977995011024177,121.14857615576608,11.406326286261901,1.102509593674355,83.90258725266904,59.919203867007134
12.008710175286978,1.5753550104380987,1.2874482650950085,0.5482479427054658,11.987783402204514,0.35970315975493017,10.978125267429277,121.15318503256688,11.630981422611512,1.1077322268823742,86.14881797414273,60.93312577110972
12.246804834110662,1.5909750887268364,1.3176675096328836,0.5596680889486422,12.224848753539845,0.35995265632829926,10.978317368892021,121.15771387502463,11.857902953634039,1.1094868257098698,88.39511800184846,61.95414571365008
12.48005118733272,1.6054012895356322,1.3481762407172937,0.571199064669526,12.45899490476586,0.36435431724854705,10.978573070722632,121.1622639974235,12.080687316134572,1.1228261358600278,90.64146663993597,62.98341999964224
12.710622461512685,1.619259742604637,1.3789652831037529,0.5828841322089852,12.690390868578106,0.3697138258430484,10.978892717277631,121.1668590176646,12.30065016518347,1.1388162162750894,92.88784817047417,64.02093168199502
12.944774307310581,1.6341596644269374,1.4100261791900266,0.5944015643254391,12.92346638860181,0.3704113114117768,10.979276742087677,121.17142990533638,12.523553197504953,1.1465480391818814,95.13424728251994,65.06522874513452
13.172971321735531,1.6478878218726432,1.4413560911780223,0.6059505249719981,13.152875600848347,0.37353486638274064,10.979726954363286,121.17601157882228,12.74139079847373,1.1583550583928905,97.38064442388713,66.11652075233916
13.397836786229163,1.660998394629116,1.4729460067173932,0.6179314789365449,13.378851139452308,0.38273940961132985,10.980243112542666,121.18058577481509,12.955723448423669,1.1677268943235515,99.62702302448452,67.1741900469896
13.621111724991351,1.6738095242791684,1.504787442710949,0.6297540354791803,13.602681705262512,0.38378906602221663,10.980825199512765,121.18521583199083,13.168274181894958,1.1845039500590222,101.87336549907923,68.23894996968716
13.849976819008589,1.6879210419218391,1.5368741091515403,0.6415738311090244,13.829780310858041,0.38629457607089296,10.981473965803161,121.18982358343875,13.385678003542125,1.1917808955356235,104.11965608224273,69.30924030002156
14.078546037431806,1.7018490925060212,1.5692054487590212,0.6532591934562706,14.057650727685541,0.3869345828455068,10.982191769289784,121.19441046040554,13.603301035007462,1.1992173414899756,106.36587415449321,70.38481010046766
14.303984489757568,1.7148647064564704,1.601778339187149,0.6651968146949198,14.283559658564627,0.39320514992271827,10.982979816384614,121.19901121797443,13.818128598388284,1.2108592014265338,108.61199971847236,71.46597110806138
14.520847270265222,1.7257810358967813,1.634586701868102,0.6770094655858843,14.502875810023397,0.3942570199895692,10.983838437707163,121.20356060189899,14.024958886671811,1.2142126387862768,110.85801457799971,72.55139862667811
14.742340911179781,1.7377825557943318,1.6676202690578066,0.6890527238169214,14.723454334307462,0.4001263287417046,10.984765819273889,121.20819497011837,14.235157680232078,1.2341844503906891,113.10389952920377,73.64312858495984
14.962425416335464,1.7495980456417293,1.7008767941151746,0.7010084283368557,14.943423960823566,0.40160387403919406,10.985764612909406,121.21281652612859,14.44442563666962,1.2421464234122144,115.34963772259653,74.73930128652752
15.18084729788825,1.7612851069925843,1.7343524764874019,0.7130024446917941,15.16204581828788,0.40455822074930203,10.986835201270878,121.21739094165889,14.652104769600555,1.245477300268118,117.59520914778113,75.83913274723226
15.394530809018761,1.7722223157923407,1.768042758514639,0.725013633216814,15.376945293974131,0.4072831766272441,10.987977940472774,121.2221000071147,14.855361189227551,1.2718435409241784,119.84059267677367,76.94549418051217
15.610176770016551,1.7838798802906168,1.8019409946282394,0.736865718525033,15.592100611422211,0.40715338446153915,10.989192979875952,121.2266389456867,15.059942331630737,1.2591382829785633,122.0857744012028,78.0530241251455
15.82409245800227,1.7953327009372104,1.8360446103615686,0.7489197642729792,15.806120353285223,0.41237082763825417,10.99048060993664,121.23126254362298,15.263099563773721,1.2788878934204246,124.3307278342545,79.16589427843472
16.030927933752537,1.8052854444887938,1.870349595497828,0.7612906566123633,16.01484226435423,0.4198817558191525,10.991842291667126,121.23587044237246,15.459743171930313,1.2858227213665132,126.57543636485934,80.28221295576415
16.243225620593876,1.816472863208547,1.9048482974176295,0.7734174810694348,16.225797466933727,0.41879470095349114,10.993276218068786,121.24053187928149,15.660652462160215,1.3014041197048327,128.81988078169525,81.40300919003359
16.453896017745137,1.827243101949101,1.9395404476090334,0.7855969556346005,16.436282514128834,0.4215390301218188,10.994785176590085,121.24510797860769,15.860524882329628,1.2988906962463764,131.06404189392924,82.52573362122469
16.661852287128568,1.837378137969312,1.974423031148035,0.7978793644906911,16.64472571341321,0.42541689771922303,10.996369175729342,121.2497453482906,16.057852116646245,1.3155048895788368,133.3078961595893,83.65278342100214
16.866627167910337,1.8468187461215875,2.0094917855458334,0.8101117797135985,16.850328504573554,0.4269430699624862,10.998028791393153,121.25440415288836,16.25206288509071,1.326904768040516,135.55142586492002,84.78332328980903
17.06934374338016,1.8558613937536863,2.0447419545962475,0.8224725752915995,17.05363748408854,0.43104469914075094,10.999763584928587,121.25907285829776,16.44411094021052,1.3365702051662132,137.79461176879704,85.91701923209446
17.27451974945143,1.865552005789346,2.080169291875791,0.8349800630819427,17.257979148533195,0.43566078488617355,11.001573555986397,121.26368791355131,16.63815767224878,1.3375192449642794,140.03743416443467,87.05263651581576
17.474977941717952,1.8743470656195906,2.115772571065463,0.8472486099931593,17.459327430464327,0.4341562369661149,11.003460095380433,121.26838047102937,16.828159810975194,1.3561393500701324,142.27986986003816,88.19235780338283
17.680251692887396,1.8843204751603264,2.151547316869255,0.8597971215060825,17.66314774984494,0.44035909642943505,11.005423052469268,121.27306715171918,17.02209315332584,1.3634805668442926,144.5219017099589,89.33459705136123
17.8803479061462,1.8932707557909718,2.1874934685765766,0.872360075742396,17.864084778819233,0.44304627879192754,11.007464522961527,121.27774594386743,17.211761561455205,1.370521229880062,146.76350745931268,90.47921108768162
18.0786959878169,1.9019201916712876,2.223606747109443,0.8848909104241871,18.06293245544657,0.4446164881813201,11.009583643171936,121.28245640776802,17.39943200489506,1.38278529458532,149.00466644763947,91.62679647364325
18.27570774545893,1.9103372118248896,2.2598835945827886,0.8972969744199581,18.26021720888093,0.4445146785282326,11.011780610773712,121.28710187909066,17.585701880510896,1.3816723886590023,151.2453591618687,92.77554071538331
18.468707563355565,1.9179424486843324,2.2963209887384437,0.9099453035727036,18.454224057961255,0.4502053375719149,11.014055242063478,121.29181607846508,17.76822295319289,1.3988254886016473,153.48556224815547,93.92773019735156
18.667224335018545,1.9268525732576032,2.332914463651832,0.9225880422609364,18.65110890613869,0.452366338226446,11.01640738453716,121.29643132663193,17.955336523940787,1.3926527781238882,155.72525801695883,95.08028556411904
18.85840617166832,1.934403559197711,2.36966473684879,0.9350206920348622,18.84372215392068,0.4508474462155377,11.018839019467123,121.30115603363912,18.13631010102108,1.4155034349050915,157.96442042663693,96.23684685003948
19.05664525507018,1.9437497899281175,2.4065668791881762,0.9475725602336864,19.03999335737899,0.4543257946740362,11.021349299815483,121.30584681779843,18.323023496894166,1.4183287224255263,160.20303341560066,97.3947576762519
19.252171551343054,1.9528984730365524,2.4436220920761116,0.9601399702395647,19.235462544951588,0.45658903114149196,11.023940845043398,121.3105372847928,18.5078717446886,1.4258121751186927,162.44107282720506,98.55454466574867
19.43473202176392,1.9597239573101366,2.480828211118933,0.9728651891407802,19.421614550519735,0.4610935183413434,11.02661381883081,121.31521851725192,18.680866707116365,1.4319704069379138,164.67851703241467,99.71597292460359
19.62341604521498,1.9681911584708023,2.5181765810702927,0.9854671669947377,19.609257475007325,0.4610403017249119,11.029363712412305,121.31990127807903,18.85819011204876,1.4392057447045634,166.9153467733413,100.87916666240584
19.809314584359527,1.9763258073490788,2.555667050764896,0.9981448531542036,19.79539738362655,0.46387585161361017,11.03219322313089,121.32462988965746,19.033442097250372,1.4529057989591656,169.15154004842043,102.04485352676765
19.990520518738776,1.983628239832383,2.5932970918365754,1.0108962826122698,19.97780119208619,0.4669301655701153,11.035102381720208,121.32937729362047,19.20426632859744,1.462726050506308,171.38707757368684,103.21247351412562
20.171231427695602,1.990875068200672,2.6310626307385974,1.0236434830954932,20.158737318124622,0.468662068696601,11.038089765352197,121.33409375325166,19.37420511431992,1.4651951555021074,173.62193966284394,104.38106345885166
20.35395648283884,1.9985204098483385,2.6689613834605552,1.0363387331513594,20.340642709750682,0.46944019147105753,11.04115540732164,121.33886505324169,19.545871001901105,1.4798778922627802,175.85610431060195,105.55211843180615
20.538693563081324,2.0066022025423536,2.7069928780547343,1.0492269819995335,20.52424697764218,0.47426077185638454,11.044301226153038,121.34361838442649,19.719523465028033,1.4842275850247477,178.0895519386977,106.72425352958945
20.7270130882971,2.0155068180147717,2.745157088211272,1.061914892464352,20.710868390277028,0.4728358423460544,11.04752849729266,121.34835929610604,19.896601870423183,1.4892885999508712,180.32225975953043,107.89751575194481
20.904867727309465,2.0223898074062725,2.783455087512266,1.0748634073976,20.891069165430963,0.4786527796275829,11.05083959386684,121.35316540685007,20.064607687294483,1.5057251727688072,182.55420439690351,109.07326199919933
21.07844523852691,2.0285882672802056,2.8218810164253227,1.0878475971088324,21.06634959159419,0.4812779782876006,11.054231327725574,121.35794145224638,20.22786013968289,1.508109098452905,184.78536826372147,110.24970025336644
21.255291774403304,2.035697441049996,2.860430376662407,1.101102325090673,21.242442003451288,0.48754219666505627,11.057701577432454,121.36271236763643,20.393582757096738,1.5137892725961501,187.01572998985648,111.42724020422907
21.429349928162992,2.042416565038942,2.8991026514559053,1.1140601280581794,21.416826079133898,0.4845718150873599,11.061252298066393,121.36749965583422,20.557046328205615,1.5227102617438102,189.24526772461832,112.60622646275618
21.6063551469706,2.0498302351419473,2.9378957937587984,1.1268214092748705,21.592760276515037,0.4823332022479387,11.064883155864663,121.372250713916,20.722939934348688,1.5238102415103583,191.47396116890013,113.78565108945735
21.777007270604372,2.055957515088928,2.9768098711501807,1.1396564829929436,21.764712072443217,0.4847752193585706,11.068595705088228,121.3770515436825,20.883362418040633,1.537589752917334,193.70178703591228,114.96704589825303
21.946047828998417,2.0616760269545034,3.0158411252195947,1.1528778416200476,21.934340932406485,0.4929791193686899,11.072388343862258,121.38182382692773,21.041791149415076,1.5397077671749542,195.92872684448957,116.14892949727847
22.112408697605133,2.0667261687471994,3.0549869821988977,1.165817168684905,22.101397204678506,0.4902549821441894,11.076260256464593,121.38663268219284,21.197612619493157,1.5512952085398566,198.15475891157985,117.33245755243948
22.279600703623146,2.071922389064715,3.0942450032453053,1.178867543462258,22.26826324732974,0.49322767224186737,11.08021107269451,121.39143868881277,21.353925340808928,1.557017045181103,200.3798643089831,118.51686326739414
