coupler,coupler,$D^a [mM]$,$D^a [mM]$,$I_{islet}^a\ [pg/islet]$,$I_{islet}^a\ [pg/islet]$,$\gamma^b$,$\gamma^b$,$I_{cell}^b [pg/islet]$,$I_{cell}^b [pg/islet]$,$G^b [mM]$,$G^b [mM]$
2.696762793639209,1.0730048205154203,0.5037754067016067,0.07068455391315755,2.501135037164204,0.14124142684453656,11.004381649428979,120.98943203126483,2.526591913512675,11.0371830446024,5.436810191196855,35.356302702029765
2.9783703784341924,0.9652048359494774,0.5108305984904291,0.09999987873929542,2.870511853019707,0.16742498480838974,11.004474743967876,120.9939397855131,2.8817436860408634,5.655926690846497,7.67243528139079,35.559546292642146
3.2582498947158456,0.925651765543086,0.51991876088141,0.1228610936841314,3.1861110160825774,0.18196811773125154,11.003519661491737,120.9986130014189,3.150345553527586,3.143923223456319,9.908099700463936,35.80512064521861
3.536624928470701,0.914542032935534,0.5305486557772383,0.14225864052888396,3.4792732269270346,0.19187071526011718,11.00232032861095,121.00313731546719,3.37492138822563,2.1263532672828025,12.144121805322357,36.091429629801425
3.8134227318223566,0.9190632056144185,0.5424802961206296,0.15985193783016843,3.762496756738983,0.2018744372898698,11.001074524712749,121.00767948263389,3.5766882371972315,1.809293467174088,14.380575710325502,36.41790968750417
4.090087610296905,0.9329006689566036,0.5555690480250632,0.1758850812275389,4.041650301893242,0.20944728087298806,10.999830564018339,121.01224657585028,3.7669747717445716,1.7369858492747443,16.617481298511848,36.78353796629107
4.365623693098314,0.9523242320378469,0.5697163411095971,0.1909667344301833,4.318485468393192,0.21745785470341833,10.998600212391466,121.01676008532527,3.9509468666510656,1.7278982709647601,18.85484228748828,37.18680340779117
4.6396248346427456,0.9749470219837941,0.5848432969360147,0.20519296611052734,4.593460386968218,0.22430370129448807,10.997386415605433,121.0212377062068,4.130984279734548,1.7336088146858717,21.092654874781147,37.62652169445609
4.910768695524894,0.9990674564296593,0.6008831221406581,0.21888871218511854,4.865965818869881,0.23173290942978325,10.996190199162811,121.02577861513264,4.307615800527856,1.7452273951837092,23.330914422869682,38.10198779489568
5.180565510760061,1.0239848039092672,0.6177750423375983,0.23208476306097736,5.136665015830658,0.23837448952156715,10.99501223769039,121.0303059554085,4.481861038308125,1.7567671573713823,25.569619450019673,38.611450568478205
5.450484990957193,1.0494847382358374,0.6354674532340141,0.2451904457249574,5.4067058162763715,0.24727572770048217,10.99385301861912,121.03485778564395,4.654964686138555,1.770091187866598,27.808765234425664,39.15383848320965
5.718994796741754,1.0749883385175463,0.6539170906908112,0.25780373983615357,5.675628610420972,0.25261343661835095,10.992713217856362,121.03942538372888,4.826783020864241,1.78460241086293,30.04834793554619,39.727764833574305
5.9859256179770455,1.1002263054613335,0.6730845146084903,0.27022184021736084,5.943148422171362,0.2591878817078367,10.99159345915541,121.0440255911488,4.997159609163646,1.8009386647500834,32.288363250438124,40.332038578585
6.251774207456037,1.1251552549532644,0.692932807651232,0.28240589982072506,6.209449818590656,0.26507289376407656,10.990494354977272,121.04859812978424,5.166264705185313,1.81697015418665,34.52880734577775,40.96483008465405
6.51723722810857,1.1498484244351632,0.7134291184920585,0.2944688157318711,6.4750250657089055,0.271420143524373,10.989416433731094,121.0532207508663,5.334531852742657,1.8363055741883751,36.76967400033027,41.62551245942812
6.781154379015788,1.173973071852034,0.7345444926613709,0.30625902235455443,6.739375290228054,0.2759401953882779,10.988360423827544,121.05783512455122,5.501597799709998,1.8556828405019015,39.01095952652395,42.31227514756125
7.044685694621876,1.1977520637776833,0.7562514922174159,0.317973421845063,7.002997287781909,0.28169846561538403,10.987326852744445,121.06247240157242,5.667861027061008,1.8770299239012327,41.25265800766647,43.024165756010866
7.305347939953208,1.2205834039951482,0.7785256732167909,0.3296133462260167,7.264600204536691,0.28737342224582296,10.986316373571754,121.06716318913094,5.832279278256465,1.9008414612544664,43.49476442160085,43.76029600256256
7.565966548398137,1.243166220687647,0.8013419480121229,0.34103634025267104,7.525363250402734,0.2911854223990373,10.985329513554461,121.0716957445496,5.995744253508747,1.9191297332053805,45.73727494152263,44.517236995534425
7.825490231625736,1.2652818537624766,0.8246796081366483,0.35270528179426536,7.785127612994984,0.2994733625624269,10.984366540564224,121.07623902382102,6.158176240569446,1.942486331030192,47.98017765348777,45.295644861497856
8.08407033723779,1.2870018275935569,0.8485186433244962,0.3642618563282657,8.043920929310843,0.3044164524832176,10.983428178937174,121.08085439944026,6.319611320504919,1.9700493173072975,50.2234667330049,46.09513996187464
8.341547180898488,1.308319421450111,0.8728410392650403,0.37575583762980547,8.301658608717844,0.30914097283062986,10.982515122392215,121.08550229086947,6.479987810831517,1.9981403649725746,52.467138352338225,46.91424517444532
8.59831246198155,1.329359886602703,0.8976296066248324,0.38701791104375866,8.558542073704302,0.3116204423218588,10.981627872562967,121.09017613791029,6.639470811584033,2.0269365312368546,54.71118706930429,47.75189688815814
8.85223279776983,1.3496112475087383,0.9228687414724845,0.39868803831274013,8.813372031087056,0.3210613983289701,10.980766950524412,121.0948358919071,6.79707628977485,2.055251140621503,56.95560704451054,48.60665634627978
9.10254921275191,1.3688979598849857,0.9485412302601617,0.41012193126354646,9.065213726600632,0.32393298329328907,10.979932658956386,121.09943793869581,6.951932876021601,2.0825592807791447,59.20039106532931,49.47705928120576
9.352973761968315,1.3881868715582737,0.974630232230993,0.42143814331580076,9.315920552471653,0.32687933100977146,10.979125101468526,121.10413159478526,7.105461063911207,2.115631254625843,61.44553051982075,50.36416339181146
9.601719303289428,1.4070611596144358,1.0011225108464714,0.43284137805971795,9.565161816077307,0.33218009343594573,10.97834493080154,121.10894162055786,7.2574777227127925,2.151717578078259,63.691021744161844,51.26750751000722
9.849473494337872,1.4257068704800762,1.0280049505236093,0.4443463776111803,9.813218045281246,0.33796146219627515,10.977592628914863,121.11356872157184,7.408235191251151,2.1782516358832145,65.93686189223081,52.18231871938353
10.09459899761714,1.4437130116171295,1.0552656975633,0.45586708041126844,10.059219230664894,0.3426669449756869,10.976868059835397,121.11825228932763,7.5570410350337625,2.211772182518359,68.18303703144193,53.11110044372248
10.338946440955624,1.461551450461581,1.0828923353983555,0.4673040507871682,10.303927862318233,0.34580773500374384,10.976171798538417,121.12295664278584,7.704474653815851,2.246249529679601,70.42954210750759,54.052676475439206
10.580595165723935,1.478743867325364,1.1108742378710303,0.4790891375289931,10.546496681403369,0.3541392739657763,10.97550419648178,121.12767626302113,7.849865526310168,2.2812999882054834,72.67637048102915,55.006318697140365
10.823199713602662,1.4961987016118303,1.1391998146136757,0.4905927033195377,10.788779755821452,0.3551468561089861,10.974865450989455,121.13245285555591,7.994705808814615,2.3185548769517057,74.92351538967341,55.97200961531308
11.061665181070566,1.5126087507838248,1.1678611927782185,0.5019317877183507,11.028461747337133,0.3562735786445446,10.974256111541763,121.13716961070038,8.137194272712804,2.3525009773800853,77.17097111791372,56.947477218050416
11.299038182245567,1.5286726979982375,1.1968474090390373,0.5135938875301226,11.266444619046524,0.3637571424111096,10.973676070687361,121.14189960985841,8.277953739278018,2.3888111923934567,79.41872801538557,57.933238273651966
11.5374642603565,1.5448742504948336,1.2261489710072055,0.5249987752297054,11.504376769764349,0.3644870139392789,10.97312563448213,121.14664544496266,8.418368596583605,2.426235986545378,81.66677896864712,58.92881319480933
11.77317876345478,1.5602368837247287,1.255759498802945,0.5367353484589673,11.740658710477874,0.37196198818928783,10.972605297691189,121.15140939152725,8.557248873752542,2.464466445506031,83.91511649638414,59.93374674622393
12.008710175286978,1.5753550104380987,1.2856703124998603,0.5482286528607945,11.976168009219691,0.37270786324108074,10.972115303622559,121.15614598904533,8.695263988804072,2.5015837925306035,86.16373335104436,60.94688639077725
12.246804834110662,1.5909750887268364,1.3158747353299987,0.5598929971412877,12.212903425330296,0.37791837639166886,10.971655897097662,121.16094322825909,8.834121973370202,2.5421415146000266,88.4126204168424,61.96914474230697
12.48005118733272,1.6054012895356322,1.3463683580921497,0.571575658991585,12.447217751992866,0.381752840960318,10.97122795227915,121.16573350851431,8.97097127023153,2.581405198880224,90.66177119500935,62.9990634114454
12.710622461512685,1.619259742604637,1.377142801269656,0.5831994310426601,12.678956063929945,0.38420996313890154,10.970831458689645,121.17063283822283,9.105472858529538,2.6250744882575905,92.91117730736732,64.03806754186604
12.944774307310581,1.6341596644269374,1.4081898696895223,0.5950440928776977,12.911809846293181,0.3902786067119226,10.970466665923595,121.17549863367047,9.240585222491063,2.664778733484772,95.16083464119583,65.08354404738132
13.172971321735531,1.6478878218726432,1.4395057731017005,0.6066901705914265,13.14153467444703,0.3910409020401504,10.970133930793963,121.18036008476797,9.37302000366617,2.70497223577,97.41073303390294,66.13560915337943
13.397836786229163,1.660998394629116,1.471082364761969,0.6183803827670845,13.368006638716906,0.39424678923338213,10.969833164708689,121.18520522584865,9.502444883110002,2.745115313258557,99.66086422279477,67.19374483972506
13.621111724991351,1.6738095242791684,1.5029114444332663,0.630149953433425,13.59222099604085,0.39828382312591654,10.969564134487882,121.1901625029075,9.629564392729662,2.7903412370293856,101.91121955681592,68.2597151991377
13.849976819008589,1.6879210419218391,1.5349862860457506,0.6422314782534916,13.818884371314198,0.40575910798159726,10.969327089027502,121.19510229728512,9.75832133134827,2.8322119054134784,104.16179497353733,69.3311210324142
14.078546037431806,1.7018490925060212,1.5673053787031677,0.6542762143909675,14.04634795570746,0.40886123149477205,10.969122612616047,121.20003034468208,9.887744168750942,2.873799392563272,106.41258050501347,70.40777900477008
14.303984489757568,1.7148647064564704,1.5998657261370681,0.6661265635942759,14.27225121576339,0.4089306054353072,10.968951282091439,121.2049996401915,10.015929915010929,2.9175867769567074,108.66356649249792,71.49029900385354
14.520847270265222,1.7257810358967813,1.6326619240571745,0.67796716012749,14.492382960859686,0.41107458180731793,10.968813395593315,121.20985232273802,10.139204826788045,2.9562521165877644,110.91474559344351,72.57582036339208
14.742340911179781,1.7377825557943318,1.6656843170057982,0.6898421440863285,14.712982791941613,0.4140936514735212,10.96870784193743,121.21489409331802,10.262335464241914,3.005242249515523,113.16610566154122,73.66920517232352
14.962425416335464,1.7495980456417293,1.6989299378474243,0.701805476080591,14.932922674808651,0.41803988342739684,10.968635724508204,121.21993037204808,10.384685370489024,3.0497517760878643,115.41764459758997,74.76696465036426
15.18084729788825,1.7612851069925843,1.73239478393225,0.713606171669558,15.151599377859384,0.4183799993598309,10.968596938997507,121.22488897409818,10.505809625727125,3.090721295005953,117.66935313306749,75.8676762409254
15.394530809018761,1.7722223157923407,1.7660745131433941,0.7256887980849289,15.36692611547187,0.42471131965338665,10.96859132591635,121.23000122042184,10.623948095715605,3.139591398639691,119.92121955566108,76.9750560257173
15.610176770016551,1.7838798802906168,1.799962662102189,0.7377020240834963,15.582088902126998,0.42674241694608306,10.96861910680309,121.23500995886083,10.741571376333013,3.181074906739449,122.17324103042483,78.08454027412776
15.82409245800227,1.7953327009372104,1.8340562870143913,0.7497964642980652,15.7961464561522,0.4303095882874054,10.968679975252599,121.23996575478297,10.85806847224012,3.2228147400736704,124.42540466412902,79.19682165338418
16.030927933752537,1.8052854444887938,1.868351494835224,0.7620365728288905,16.00551239727065,0.4350836525598088,10.968774035689421,121.24502410432355,10.970459191245027,3.2704967145350077,126.67769964970648,80.31439861106341
16.243225620593876,1.816472863208547,1.9028412091429345,0.7741979351253084,16.216277728322893,0.43661820713568666,10.968901041895151,121.25003535577788,11.083524894551374,3.314281011063044,128.93012158945203,81.43453053079958
16.453896017745137,1.827243101949101,1.937524257285986,0.7865640251050551,16.426625117193907,0.4419154935014086,10.96906121680513,121.25524039835366,11.196111596771516,3.3660835506996576,131.18265942297876,82.56122671341737
16.661852287128568,1.837378137969312,1.972397672769148,0.7989627872470592,16.635175708215684,0.4452267003024913,10.969255424686708,121.26044593564393,11.307099143159576,3.4129954877527116,133.4353111460805,83.69097298264086
16.866627167910337,1.8468187461215875,2.0074574843165465,0.8112773977053339,16.841097547207028,0.446403891416007,10.969483204069547,121.2656570855926,11.415693853748962,3.459066836659625,135.68806771561503,84.8237221516738
17.06934374338016,1.8558613937536863,2.0426991119165905,0.82336132896032,17.044731713365763,0.44488344843197675,10.969744181376882,121.27087867720134,11.522060642018914,3.505248977440027,137.9409206956625,85.95942933302227
17.27451974945143,1.865552005789346,2.0781184210791253,0.835489021640053,17.248925257939845,0.44706610520477075,10.970038083498366,121.27605784586537,11.628541003912687,3.5496945673644493,140.1938617900014,87.09704546290835
17.474977941717952,1.8743470656195906,2.1137136945617385,0.8479579290126985,17.450510853435844,0.45447260436502696,10.97036511672195,121.28132891422798,11.732717264443636,3.5986677111533014,142.44688028469682,88.23881590743491
17.680251692887396,1.8843204751603264,2.1494805374532007,0.8603369470096107,17.653941753786057,0.4560461145401936,10.970725340768695,121.2866569374669,11.8381474862108,3.6476128591952293,144.6999709419906,89.38400370466047
17.8803479061462,1.8932707557909718,2.185418650507927,0.8726676895439851,17.85500325774774,0.4573130248067445,10.971119426074438,121.29203641359547,11.941614273237064,3.6965151393890507,146.953126270324,90.53239600334656
18.0786959878169,1.9019201916712876,2.2215241162339225,0.8853583280867426,18.05406717164442,0.46486200967149044,10.971547131426632,121.29741582314182,12.043223810032941,3.743710464406347,149.20633923634887,91.68297360815997
18.27570774545893,1.9103372118248896,2.2577932916465215,0.8978518790117854,18.251529549714178,0.46475258276830955,10.972008080105297,121.30272705779508,12.14323522883933,3.7882132613030524,151.4596009682864,92.83443108115914
18.468707563355565,1.9179424486843324,2.2942232443601824,0.9105353713250689,18.445943207480013,0.469408946688453,10.972501866519451,121.30812237891587,12.240440479828976,3.837495416262731,153.7129001673311,93.98939847889433
18.667224335018545,1.9268525732576032,2.3308097030967474,0.9230518399876884,18.642446861136705,0.4692061204318378,10.973028396489099,121.31347426532446,12.339000244042836,3.8835823986215012,155.96623159758747,95.14550201778177
18.85840617166832,1.934403559197711,2.3675527806044556,0.9356346723566638,18.83538472931832,0.4718774884432465,10.973588054184802,121.31889651704752,12.434569035191089,3.932969145452473,158.21958414651453,96.30469834841224
19.05664525507018,1.9437497899281175,2.4044479790027253,0.9484501853981007,19.03112993342802,0.47760897774935945,10.974180543795228,121.32436996357922,12.532170433667488,3.9825740123557565,160.47295197844505,97.46655708266849
19.252171551343054,1.9528984730365524,2.441495867969934,0.9610619485603608,19.226369865704328,0.47697557389894074,10.974806770449504,121.32980157445834,12.629431349225342,4.029165495916899,162.72632725536823,98.62931819647567
19.43473202176392,1.9597239573101366,2.4786946196691133,0.9736729353385238,19.413627403322607,0.47847925656895524,10.975466624833643,121.33527515221388,12.720038877567276,4.077995558893956,164.97969917021692,99.79442439447419
19.62341604521498,1.9681911584708023,2.5160365906194784,0.9864449545334053,19.601365481503308,0.482823124551281,10.976158585981466,121.34075849744303,12.810381495393813,4.126306810003898,167.23306176811457,100.96122666029933
19.809314584359527,1.9763258073490788,2.5535207160864957,0.9990667655617576,19.787624028977007,0.48265339027236903,10.976882774149999,121.3462148987081,12.899199063889682,4.173341307502357,169.4864064808935,102.12899194432967
19.990520518738776,1.983628239832383,2.5911446178797632,1.011900352241776,19.97047457145527,0.4875313892739862,10.977638848125935,121.35177221555544,12.984908127225935,4.224461506682393,171.73972379043698,103.29998041230483
20.171231427695602,1.990875068200672,2.628904372395482,1.0245110272805908,20.15166454249993,0.48619580373255944,10.978426488116384,121.35732801751216,13.068815967533737,4.27319328911278,173.99300940148532,104.47225960677089
20.35395648283884,1.9985204098483385,2.6667976342723705,1.0371690184946056,20.333398178219795,0.48816254707456813,10.979245131718926,121.36286071969957,13.152830898296088,4.320700755412509,176.24625496007502,105.64538036723164
20.538693563081324,2.0066022025423536,2.7048235437250696,1.0500636578734999,20.516556127928197,0.4937452413038136,10.980094912229106,121.36844991919972,13.23790620919317,4.3706473596845274,178.4994509872049,106.82074074806206
20.7270130882971,2.0155068180147717,2.742981884162873,1.062841995061596,20.702433009631932,0.49421951291458466,10.980976641410962,121.37411799658325,13.325303953839466,4.422017294886661,180.75259054079652,107.99868594555666
20.904867727309465,2.0223898074062725,2.781273506989237,1.0754042740145453,20.883118079043925,0.49221197222031776,10.981891433824785,121.37975355433058,13.408631645608693,4.470166600942201,183.00566708296537,109.17711096843297
21.07844523852691,2.0285882672802056,2.819693587021902,1.0880319759112864,21.05915963696316,0.49432309148949183,10.982837895513512,121.38548146369884,13.487787064863369,4.521675693857613,185.25867126323283,110.35826552345479
21.255291774403304,2.035697441049996,2.858237690583337,1.1009759493164584,21.235304911155254,0.5011870000009001,10.9838152640732,121.39122853393975,13.566492374520749,4.57165660812066,187.51159886829555,111.54075219695694
21.429349928162992,2.042416565038942,2.896904778899625,1.1135565450906364,21.409818574320525,0.4976515167758954,10.984823438338935,121.39698207653868,13.643580056726933,4.620931189942583,189.76444208808243,112.72429027250261
21.6063551469706,2.0498302351419473,2.935692877799738,1.1264474661286217,21.58544734911993,0.5035078567236538,10.985862024244852,121.4027366863396,13.721334253670648,4.669922538801865,192.0171930231154,113.90873825705184
21.777007270604372,2.055957515088928,2.9746016180724837,1.1393725369648995,21.757710284087807,0.5063485508199415,10.986931404913776,121.40853721774694,13.79624711535871,4.720361124558844,194.26984323747456,115.09487982658457
21.946047828998417,2.0616760269545034,3.0136277834535576,1.1524308657132054,21.927659765351564,0.5103180520118786,10.988031014217995,121.41432633200014,13.868935670237988,4.769363062640553,196.52238652668893,116.28161439533812
22.112408697605133,2.0667261687471994,3.052768871129956,1.1653261470720266,22.095075969584286,0.509555177084816,10.989160145516507,121.42019528569634,13.939174506813288,4.82096670740939,198.7748147584498,117.47059560727877
22.279600703623146,2.071922389064715,3.0920223728753626,1.178200999036284,22.26197728794068,0.5103317779772965,10.990318465512246,121.42599887944297,14.008606516057625,4.868655135568673,201.0271232854575,118.6590919099773
