coupler,coupler,$D^a [mM]$,$D^a [mM]$,$I_{islet}^a\ [pg/islet]$,$I_{islet}^a\ [pg/islet]$,$\gamma^b$,$\gamma^b$,$I_{cell}^b [pg/islet]$,$I_{cell}^b [pg/islet]$,$G^b [mM]$,$G^b [mM]$
2.696762793639209,1.0730048205154203,0.5037754067016067,0.07090288749349923,2.647855853952933,0.14146657115976574,11.004381649428979,120.98934391041301,2.35642103353166,22.060525913616274,5.436810191196855,35.356214978326975
2.9783703784341924,0.9652048359494774,0.5116750574088655,0.10053204746492497,2.9660778308170848,0.16399607608784755,11.008815057459287,120.9938703979655,2.6149461131135467,22.239772039148306,7.672479133179877,35.559717392579564
3.2582498947158456,0.925651765543086,0.5212494952138513,0.12352832168098896,3.2497693648329005,0.1735905137795366,11.013358469470404,120.9982970143801,2.7756249782978557,22.52983640048478,9.907021143008024,35.80512948107974
3.536624928470701,0.914542032935534,0.5321746077825082,0.1431967272737331,3.5286490441067144,0.18167393126571044,11.018067043158226,121.0027135708041,2.8385065175243653,22.9247940890954,12.140430386993103,36.09173990187695
3.8134227318223566,0.9190632056144185,0.5443172691884683,0.1608060295620815,3.8056241929298267,0.18927151527439506,11.022993884165771,121.00717055775952,2.8036396611714736,23.417989282739224,14.372689204989001,36.418740999643
4.090087610296905,0.9329006689566036,0.557577354615205,0.17685845997703728,4.082285801763646,0.1955859804244175,11.028190901619382,121.01161953592619,2.671073908888502,24.002280360233417,16.60376731073484,36.78487508316427
4.365623693098314,0.9523242320378469,0.5718752901739208,0.19181892346537918,4.357896981178783,0.2019028882132461,11.033709631767124,121.01604094233399,2.4408598837908357,24.670526543683454,18.833618606673554,37.18883012506539
4.6396248346427456,0.9749470219837941,0.5871393053821521,0.20628011133868174,4.6320187414530665,0.21042567445893617,11.039602143340744,121.02043257657957,2.113050028216094,25.415824532395916,21.062182394089177,37.629267113616415
4.910768695524894,0.9990674564296593,0.603304966003634,0.22012564116236163,4.903417302644812,0.21684231657301928,11.045921947923489,121.02488545193684,1.6876992393808905,26.231755154095687,23.28938392177224,38.10534032440901
5.180565510760061,1.0239848039092672,0.6203124388557626,0.23341838396187048,5.173328677890822,0.22242508603927583,11.052724937908351,121.02929674072352,1.1648654801829252,27.112236426488913,25.515137464739382,38.6150189929409
5.450484990957193,1.0494847382358374,0.6381121529120719,0.24630500298799685,5.443199389963411,0.22815685621725101,11.060070166946389,121.0338319459992,0.5446102476926171,28.051970811231513,27.739338742103428,39.15799963306938
5.718994796741754,1.0749883385175463,0.6566636222269153,0.2589433708364772,5.7117951303953305,0.23450901765463777,11.068020859034732,121.03838603129299,-0.1730006253837928,29.046102637950042,29.961873871274292,39.732143739950864
5.9859256179770455,1.1002263054613335,0.6759270483598812,0.271260041359894,5.9788402147823945,0.2394941431877524,11.076645179535262,121.04300596626231,-0.9878965663228882,30.091042043535108,32.18260859744623,40.33641134592738
6.251774207456037,1.1251552549532644,0.6958659757947316,0.2833767084118082,6.244754266110249,0.2449974718548253,11.086017581750639,121.04762733271996,-1.9000013908662368,31.185189153117072,34.401392615865916,40.96890100810287
6.51723722810857,1.1498484244351632,0.7164481176732806,0.2954641964441448,6.5102063624653965,0.25178617780398493,11.096220800187439,121.05232280757095,-2.9092326250101905,32.32554265089973,36.618054014164954,41.62892404003739
6.781154379015788,1.173973071852034,0.7376454572513467,0.307515575161505,6.774219231447205,0.2582106736256867,11.107345438678749,121.05700230202126,-4.0155005905544385,33.50949090160457,38.83240222418681,42.31441321373386
7.044685694621876,1.1977520637776833,0.7594302764482563,0.319129835786857,7.037739274324849,0.25983305390636785,11.119490788318217,121.0616606620775,-5.218707621039357,34.734889422969864,41.044220313895494,43.024133358681866
7.305347939953208,1.2205834039951482,0.7817794350994518,0.3308501692122072,7.2986262801568955,0.26698503880913577,11.132765728863887,121.06636588282856,-6.518746939138509,36.0001075189212,43.25326604861766,43.75770621211325
7.565966548398137,1.243166220687647,0.8046664041758049,0.3425635883680855,7.559209211030975,0.27269762960876576,11.147289696265943,121.07105605833877,-7.9155015893047675,37.30370030846883,45.45927231712267,44.5135728312897
7.825490231625736,1.2652818537624766,0.8280717921152245,0.35416287951439474,7.818774881539866,0.27690008700798957,11.163193432264961,121.07569708520171,-9.408843386801891,38.64456817374333,47.66194016300142,45.29056688956743
8.08407033723779,1.2870018275935569,0.8519761925854255,0.3657655053761371,8.077388243516907,0.2822208102836993,11.180619879043661,121.0801600706427,-10.99863157235086,40.021650891758405,49.86093735555187,46.08659155088257
8.341547180898488,1.308319421450111,0.876361475297017,0.37723797853432445,8.33491213223897,0.2856975033135469,11.199724824982695,121.08447097926326,-12.684711392270401,41.434505608291595,52.05589249311015,46.9014159810586
8.59831246198155,1.329359886602703,0.9012106527516153,0.38866108546682343,8.591685418738052,0.28989342274441354,11.220678106998093,121.08858943616896,-14.466912453062832,42.88276950309944,54.24639794230461,47.734235426841096
8.85223279776983,1.3496112475087383,0.9265082585916389,0.4001437571208408,8.845821998780593,0.2953029061273003,11.243664371198975,121.09236873831838,-16.345047170761973,44.365926461631695,56.43200482707471,48.5831393739879
9.10254921275191,1.3688979598849857,0.9522366006567609,0.4116854482321701,9.09645023709163,0.3005734652644364,11.26888356229756,121.09575885606228,-18.31890903506428,45.883950667200686,58.61221655551344,49.44753812784597
9.352973761968315,1.3881868715582737,0.9783777766569983,0.4231239081437206,9.346823874861002,0.30353897076466796,11.296552094863728,121.09876017604878,-20.388270574854687,47.43721958342815,60.786489771679044,50.32767253786475
9.601719303289428,1.4070611596144358,1.0049202748632524,0.43471162886600967,9.595659907208756,0.3096776776002119,11.326904011308216,121.10108303556122,-22.552881382405758,49.02504954737561,62.95423349458724,51.22032278338132
9.849473494337872,1.4257068704800762,1.0318509491335135,0.44602177011064964,9.84344897302799,0.309985203516399,11.360190475359559,121.10274194729448,-24.812466089148074,50.648206769903915,65.11479647364467,52.12632626544706
10.09459899761714,1.4437130116171295,1.0591585631482303,0.4571065508933789,10.088766554137692,0.3106085464192946,11.39668208558578,121.10359106207075,-27.16672178916633,52.306883402217004,67.26747582759708,53.04467329864372
10.338946440955624,1.461551450461581,1.0868300925358199,0.46832232198749574,10.333135790424421,0.3159871816918972,11.436668940237723,121.10339821084384,-29.615315874572843,54.00093214002068,69.41150935273618,53.973419650240686
10.580595165723935,1.478743867325364,1.114855216437718,0.4796814892510106,10.574980478966609,0.32155623479318207,11.480460869846866,121.1021574461211,-32.15788350626826,55.731545535732586,71.54607083555311,54.913851498414594
10.823199713602662,1.4961987016118303,1.1432221294671763,0.4911578985597997,10.817432114621624,0.32670613409554233,11.528389828279614,121.09952985242387,-34.794024870265275,57.49817850578786,73.67027677688748,55.863010102653185
11.061665181070566,1.5126087507838248,1.1719239481899422,0.5024021155902165,11.056218466488644,0.32679613414170794,11.580808303086087,121.09537819310646,-37.523302792571485,59.30154902411978,75.78317380975932,56.820896131085
11.299038182245567,1.5286726979982375,1.2009485466696788,0.5138489735244322,11.293654270702973,0.33291762659181234,11.638091611559503,121.08947032115096,-40.345239736139774,61.14191915813547,77.88374560791999,57.78645384894839
11.5374642603565,1.5448742504948336,1.2302870186103974,0.5253825937016603,11.53190205921419,0.3374080777250446,11.70063791621942,121.08161824818492,-43.25931512285024,63.01995291241046,79.97090999688953,58.75948123904505
11.77317876345478,1.5602368837247287,1.259933934750734,0.5370552245937611,11.76778990845196,0.3426385363840684,11.768869418650866,121.07156647103105,-46.264962564222515,64.93599006891462,82.0435213111341,59.739090208838746
12.008710175286978,1.5753550104380987,1.2898799929243978,0.5486198811848729,12.003276295727119,0.3441835502060513,11.843232489540242,121.05904546008118,-49.36156717594713,66.89038746527412,84.10036996006966,60.724452136501306
12.246804834110662,1.5909750887268364,1.320118891337188,0.5598256183256198,12.24102878314443,0.34174759755601547,11.924198245047592,121.043860317834,-52.54846287146211,68.88416876483183,86.14018452819437,61.716036479007094
12.48005118733272,1.6054012895356322,1.3506478051131126,0.5716994994770256,12.474643726367503,0.354645078409966,12.012264164164662,121.02574687628038,-55.82492972444743,70.91799607928681,88.16163768433034,62.71359267555381
12.710622461512685,1.619259742604637,1.3814557347504888,0.5831989393264513,12.705436763819307,0.35205185542867407,12.107954087201506,121.00421713025106,-59.19019166287035,72.99094651914224,90.16334806289524,63.71400254074228
12.944774307310581,1.6341596644269374,1.4125347307999618,0.5948767320689913,12.939169482793659,0.35747688046878284,12.211815976304933,120.97889176474824,-62.6434141760692,75.10302774713848,92.14387844596058,64.715968043402
13.172971321735531,1.6478878218726432,1.4438830087310635,0.6065455631374899,13.167836262378842,0.3601666604567213,12.324423737474717,120.94974049892907,-66.1837020078674,77.25716772693208,94.1017462797463,65.72331966167837
13.397836786229163,1.660998394629116,1.4754901459091343,0.6182758723124995,13.392997479066253,0.3637975960140535,12.446382907102816,120.91614737420565,-69.81009720545262,79.45171079893404,96.03544223215431,66.73193642230422
13.621111724991351,1.6738095242791684,1.5073477861296851,0.6297533038924048,13.616376134101301,0.36244660227255626,12.578322816058062,120.87787723207384,-73.52157809305936,81.68825098843423,97.9434191500768,67.74329618371156
13.849976819008589,1.6879210419218391,1.5394499613030348,0.6417940698186927,13.844607153441757,0.37368706990508,12.7209027945064,120.83432292711242,-77.31705778557807,83.96540479038622,99.82411412149668,68.75397830117467
14.078546037431806,1.7018490925060212,1.5717975090665277,0.6537628096760834,14.073056659195572,0.3753287427379952,12.87480670795776,120.78521893231823,-81.19538349471986,86.2848103589568,101.6759470012039,69.76555635900343
14.303984489757568,1.7148647064564704,1.6043869190034457,0.6657806338043185,14.298709847498685,0.37870654781498375,13.04074898851104,120.73012469445206,-85.15533593390137,88.64673774813068,103.49734242260456,70.77741501477225
14.520847270265222,1.7257810358967813,1.6372113559045829,0.6775395018033379,14.516364816110581,0.37714364360479324,13.219472157070413,120.66854537692294,-89.19562966749072,91.05111525857996,105.28673569485545,71.78845754613809
14.742340911179781,1.7377825557943318,1.6702591274515726,0.6895840331461669,14.73738727113232,0.3839895897824323,13.411746158497408,120.60009527383136,-93.31491363141686,93.49894813346111,107.04258363693953,72.7992859926508
14.962425416335464,1.7495980456417293,1.7035300637362525,0.7017900139713878,14.957477851305157,0.38903734064973583,13.618370689684525,120.52406114512421,-97.51177219022065,95.98849090101162,108.76338024623692,73.80640219953695
15.18084729788825,1.7612851069925843,1.7370199688593857,0.7137652951146131,15.175978488754481,0.38779023931387374,13.8401690563187,120.44017641284238,-101.7847269102931,98.52205907532218,110.44766016863286,74.81242458552998
15.394530809018761,1.7722223157923407,1.7707242531469092,0.725924912756127,15.39005517354235,0.3930376202063327,14.077997128712013,120.34768232039191,-106.132238432765,101.09771942771695,112.09402437321842,75.8137685773012
15.610176770016551,1.7838798802906168,1.8046354407561012,0.7379135870030976,15.605455298908055,0.39255885954019293,14.332733466057107,120.2462704003727,-110.55270946398377,103.71763727030894,113.70113856717944,76.81284043451586
15.82409245800227,1.7953327009372104,1.838752063747961,0.750221706433205,15.819430150091648,0.3999467087654785,14.60528871556744,120.13533196225755,-115.0444876998663,106.38138979308397,115.26775763370097,77.80836813582461
16.030927933752537,1.8052854444887938,1.873069787339773,0.7623631050483913,16.026889955159277,0.3995353032041987,14.896599283907562,120.01425769340604,-119.60586987435818,109.08865487865287,116.79272805899382,78.79928740217403
16.243225620593876,1.816472863208547,1.9075800837017596,0.7746450675344686,16.23861389560625,0.4039193511434542,15.207627154421061,119.88243670772862,-124.23510582745075,111.83919076862858,118.2749984562397,79.78470797271308
16.453896017745137,1.827243101949101,1.942284245917108,0.7870133977466232,16.44929938344285,0.40753529203364,15.539359618909657,119.73934266384805,-128.93040317296982,114.63355780853783,119.7136286702007,80.76488380559304
16.661852287128568,1.837378137969312,1.9771788467187434,0.7992747781494466,16.657438011374325,0.40794025637778875,15.89281097566709,119.58436713179518,-133.68993213400245,117.4716493643262,121.10779961198568,81.73920880500414
16.866627167910337,1.8468187461215875,2.012259272218216,0.8114504231058449,16.862458385992795,0.408558850354125,16.269020343897864,119.41687721562889,-138.51183102279902,120.35320284172477,122.45681710354984,82.70692196120324
17.06934374338016,1.8558613937536863,2.0475204753456637,0.8237027806297366,17.065314177889377,0.41180958561121755,16.669050693977624,119.23642412757182,-143.39421177469194,123.27951594843078,123.76011612266302,83.6693493484925
17.27451974945143,1.865552005789346,2.082958340412006,0.8360306998178745,17.270166721660644,0.41504614306987037,17.093992817448452,119.04208681486645,-148.33516577072442,126.24797924428697,125.01726737990975,84.62279037188529
17.474977941717952,1.8743470656195906,2.118572486913763,0.8482506318810894,17.4709726665169,0.4152138738674164,17.54495340771973,118.8334443651188,-153.33276967145503,129.26015559245465,126.22796844691038,85.56897369639307
17.680251692887396,1.8843204751603264,2.1543574761017226,0.8607188184809068,17.675707689020783,0.4212756514951563,18.0230665828567,118.60978326537548,-158.38509131409228,132.31517731028407,127.39205419830978,86.506568888256
17.8803479061462,1.8932707557909718,2.1903145221294835,0.873094768646332,17.876175622921437,0.4217344253274029,18.529486110666767,118.3705660673782,-163.49019560031593,135.41355945119548,128.50948828831315,87.43603012705384
18.0786959878169,1.9019201916712876,2.226438226061873,0.885643139494421,18.074643291532993,0.4265330652870113,19.06538902572356,118.11522202392167,-168.6461502816528,138.5554657552842,129.5803630463779,88.35740443898092
18.27570774545893,1.9103372118248896,2.2627250097575597,0.8980094044002023,18.271708044223487,0.42534418641011446,19.631974002812058,117.84307983404746,-173.8510317504406,141.74022733057433,130.6048932224512,89.26975439534542
18.468707563355565,1.9179424486843324,2.2991720699355938,0.9105955005753492,18.46502151247114,0.43088246640135514,20.230458030011505,117.55355013361466,-179.10293040797114,144.96772702367855,131.58340770564973,90.17285758173422
18.667224335018545,1.9268525732576032,2.33577455842169,0.9231876257335524,18.662924957927316,0.43282957820948637,20.862077524652705,117.2457565729197,-184.39995576441288,148.2357318994267,132.51634365320206,91.06399657295167
18.85840617166832,1.934403559197711,2.372534558060579,0.9356973581363426,18.85468578385189,0.43325618422943424,21.528080220567062,116.91946361815064,-189.7402411531657,151.5464676171616,133.4042337331921,91.94581379580248
19.05664525507018,1.9437497899281175,2.409445619909093,0.9481743107577224,19.052183663938195,0.43440664240665566,22.229740022681653,116.57393859087772,-195.12194804660976,154.89847846793202,134.24770701117814,92.8166206638202
19.252171551343054,1.9528984730365524,2.446510651614517,0.960860513923556,19.247813578229398,0.4398021508613493,22.968343552201986,116.20902741275307,-200.54327039420605,158.29401258649483,135.0474712792784,93.67908876475056
19.43473202176392,1.9597239573101366,2.483726556703914,0.9735546289344168,19.431587303057313,0.44177189911538184,23.745203119236976,115.82380763672299,-206.00243815034628,161.73006272072726,135.8043109793216,94.52981964016642
19.62341604521498,1.9681911584708023,2.5210828550043516,0.9863737039006215,19.619686453603208,0.4455920599395755,24.561636689584702,115.41803998914155,-211.49772042781115,165.20787515682863,136.5190662033856,95.37034518024119
19.809314584359527,1.9763258073490788,2.5585814507794566,0.9993210584752787,19.80571110639721,0.4495569286157001,25.418983140029013,114.99128907954287,-217.02742842957377,168.72715634140368,137.19263193942606,96.20045708117965
19.990520518738776,1.983628239832383,2.5962194357416593,1.0121187377655487,19.987304835114628,0.44869151148949227,26.31859601382166,114.54278276106955,-222.5899175517261,172.28546394088008,137.82594504766166,97.01755860692876
20.171231427695602,1.990875068200672,2.6339923122432083,1.0247367124940967,20.16800981713459,0.4471181644138009,27.261834156233817,114.07233194793601,-228.18358942866325,175.8835622529078,138.41997082158923,97.8226785269471
20.35395648283884,1.9985204098483385,2.671898218104616,1.037424382985484,20.350438512396067,0.4498579194384584,28.250073896721005,113.57953523228926,-233.8068931698799,179.52068894338987,138.97570062428713,98.61516932884487
20.538693563081324,2.0066022025423536,2.7099371482618153,1.0502259489535755,20.53485032590106,0.45344859660255715,29.284702368080616,113.06439600610072,-239.45832666009665,183.19791303723576,139.49414041638374,99.39641725190684
20.7270130882971,2.0155068180147717,2.7481093294918537,1.06286312995339,20.722684546839446,0.4521564830226845,30.367124889977276,112.52673574431701,-245.1364370137453,186.9149102852142,139.97630623728037,100.16629557321738
20.904867727309465,2.0223898074062725,2.786416086659301,1.075494727283974,20.901442504953593,0.4536151060762685,31.4987587579526,111.9662833914932,-250.83982134982944,190.67057115308583,140.423214238137,100.92384601516957
21.07844523852691,2.0285882672802056,2.824849745898973,1.0880873831562254,21.075443319045007,0.45439088441468267,32.68102922802791,111.38297620720911,-256.5671266913414,194.4644731377486,140.83587275259197,101.66886969740355
21.255291774403304,2.035697441049996,2.8634059019968845,1.1010630893383846,21.25191045179963,0.46263870987194816,33.91537203127518,110.77675119505575,-262.3170494996011,198.29581666788928,141.21527775749564,102.40078239258581
21.429349928162992,2.042416565038942,2.9020851507084444,1.1138407591525037,21.42611466953531,0.4606867520292937,35.20323114236817,110.14769223519744,-268.0883356593549,202.16407437405468,141.56240716017783,103.11930537956141
21.6063551469706,2.0498302351419473,2.940885064250324,1.1267338158892846,21.602744871284813,0.4641599809789901,36.546059554908425,109.49637097186859,-273.87977918982506,206.07028591114982,141.87821673229337,103.82581679219905
21.777007270604372,2.055957515088928,2.9798062455374748,1.1397834534280906,21.773899847175926,0.4684678447420627,37.9453265205957,108.82282339157818,-279.6902216784656,210.01275239048508,142.16363886371255,104.5188420632948
21.946047828998417,2.0616760269545034,3.018843978527002,1.152873445354487,21.943056855350733,0.4706722761129381,39.40250399336219,108.1275950654094,-285.5185511596501,213.99137640857634,142.41957450471818,105.19858268663087
22.112408697605133,2.0667261687471994,3.057996036601253,1.1658997057327218,22.10960232047364,0.4709672318673151,40.91907401429489,107.41143534332255,-291.36370066180825,218.0062397462224,142.64689333736897,105.86543090141875
22.279600703623146,2.071922389064715,3.097259822592605,1.1790310448648882,22.276634610723704,0.47422835052649004,42.49652938032523,106.67495345322007,-297.2246471233666,222.0563393288141,142.84643182344735,106.51867533681276
