coupler,coupler,$D^a [mM]$,$D^a [mM]$,$I_{islet}^a\ [pg/islet]$,$I_{islet}^a\ [pg/islet]$,$\gamma^b$,$\gamma^b$,$I_{cell}^b [pg/islet]$,$I_{cell}^b [pg/islet]$,$G^b [mM]$,$G^b [mM]$
2.696762793639209,1.0730048205154203,0.5037754067016067,0.07199917693612147,2.403321157908067,0.14415077531979847,11.004381649428979,120.98937367786857,2.6286944411403965,4.433789164443061,5.436810191196855,35.35624461164174
2.9783703784341924,0.9652048359494774,0.5102383494231617,0.10086260053581941,2.757894345326349,0.17686356967130495,11.003262913087383,120.99395059374015,2.9601402073458303,1.0931081108449348,7.672404947748873,35.55946652407448
3.2582498947158456,0.925651765543086,0.5187301133846631,0.12345599568112632,3.082481316581834,0.19660581795837773,11.001946113305166,120.99847048285777,3.230768663517665,0.7021272964174248,9.90838154964149,35.80448332068173
3.536624928470701,0.914542032935534,0.5288656575867208,0.14294076058134542,3.3884400189854205,0.21157919940543057,11.000640923855826,121.0030101876406,3.488026881706901,0.7027987259167833,12.144809391349554,36.09059925851878
3.8134227318223566,0.9190632056144185,0.5404002331342781,0.160247554029518,3.6825627953512594,0.22304784150364937,10.999356355867349,121.00760992634471,3.7413453109329566,0.7238764501162992,14.381689847446978,36.4170251289922
4.090087610296905,0.9329006689566036,0.553165977660683,0.17649831109426659,3.969506978872232,0.23501127677649972,10.998093981295824,121.0121278228058,3.993765464401804,0.7375052246104843,16.619020653655753,36.7821648021965
4.365623693098314,0.9523242320378469,0.5670411874452839,0.1917042851702203,4.251671619829722,0.24515982274750509,10.996855123667046,121.01665178971771,4.245098969026003,0.7552717283704504,18.85679313284345,37.1852079553666
4.6396248346427456,0.9749470219837941,0.5819320082518971,0.20594684486567852,4.530335766496137,0.2533000760077781,10.995641270535998,121.02110503583287,4.494983307027724,0.7683299727619917,21.095001461915672,37.62452706223012
4.910768695524894,0.9990674564296593,0.5977619709155988,0.2194404493834601,4.80573953606654,0.2604957829022169,10.994453696650453,121.02564141355167,4.742288153618574,0.790309956554299,23.333636737195775,38.09971850719292
5.180565510760061,1.0239848039092672,0.6144649882189697,0.23271308421777082,5.078632440883666,0.2697531715147673,10.993293769890442,121.03020072387126,4.9879957069060765,0.808780067421743,25.572695564012975,38.60916887564324
5.450484990957193,1.0494847382358374,0.6319846479891567,0.24557649513899044,5.350053326110356,0.2777645866540505,10.992162701091729,121.03468325978508,5.233478207839653,0.8203292883592841,27.81217171717435,39.15085727803525
5.718994796741754,1.0749883385175463,0.6502742438024143,0.2582193891280357,5.620013515581377,0.2860384439278331,10.99106177710928,121.0392277621072,5.477784282702487,0.8407050960440992,30.052054645027965,39.72444261776595
5.9859256179770455,1.1002263054613335,0.6692917200416559,0.2704717050875526,5.888452940504067,0.2925347528044189,10.989992455462925,121.04377507186794,5.720588301366661,0.8573048033186615,32.29233871912584,40.32815794709945
6.251774207456037,1.1251552549532644,0.6889992703363532,0.2826268697396375,6.155534969177097,0.3001853281295284,10.988955890992656,121.04826214709881,5.962222587200813,0.869016272701198,34.53301584813744,40.96012983365877
6.51723722810857,1.1498484244351632,0.7093626698624576,0.2946263598024781,6.42163702682592,0.30739876380243514,10.987953225849196,121.0527763881352,6.203311010205653,0.8866363425588007,36.77407523896545,41.61980040614794
6.781154379015788,1.173973071852034,0.7303518088156125,0.30627331820288706,6.686522047733888,0.31234672534864766,10.98698589974083,121.05732712641013,6.443050190340728,0.905160111331033,39.01550875464454,42.30599695253359
7.044685694621876,1.1977520637776833,0.7519387820939301,0.31820364296959364,6.95051229535602,0.3217635346896937,10.986055120360106,121.06197001577841,6.682207551202737,0.9279371779025584,41.257308445870876,43.018049672456506
7.305347939953208,1.2205834039951482,0.7740979708178202,0.329740265350016,7.21280850819312,0.3264726576269823,10.985162266646512,121.0665796769825,6.918950060382485,0.9412397475783603,43.499467809684575,43.753498859921464
7.565966548398137,1.243166220687647,0.7968049926275853,0.34108842364028835,7.474061584100127,0.3309620864171429,10.984308101586066,121.07111668714522,7.155171513324603,0.9506970130685907,45.741975891403854,44.510723452577224
7.825490231625736,1.2652818537624766,0.8200381926435512,0.3527053331666821,7.734242042293772,0.33953230973404563,10.983493791194633,121.07570512716732,7.390409732586704,0.9697935121363692,47.98481959523633,45.28993265333346
8.08407033723779,1.2870018275935569,0.8437770642631222,0.36396215379721114,7.993393271230161,0.3432985064484975,10.982720716390759,121.08033850957575,7.624693479272537,0.9887426971368913,50.22799013182521,46.0899918589793
8.341547180898488,1.308319421450111,0.8680033433774952,0.3752600360690856,8.251477610785514,0.349034515456521,10.981990028405562,121.08489785178782,7.857900822302327,0.9977050699838023,52.47147804591805,46.90847629212067
8.59831246198155,1.329359886602703,0.8926993850327563,0.386631975581346,8.50862961052917,0.3556914332057912,10.981302604312077,121.08946664296208,8.090320828836411,1.0130820900482314,54.7152692778036,47.74537139934396
8.85223279776983,1.3496112475087383,0.9178490139602218,0.3979439178907183,8.764076986117288,0.36117597946467267,10.980659743538126,121.09397286449783,8.32030472473707,1.022371942988187,56.95935249235481,48.59883970376514
9.10254921275191,1.3688979598849857,0.9434359157166909,0.4093850754118468,9.017053032526746,0.36808281545388283,10.980062111280859,121.09853702315458,8.546915668761358,1.0417282126251122,59.20371380262077,49.46948835164763
9.352973761968315,1.3881868715582737,0.9694433624099474,0.4204994526938397,9.26858292450197,0.3705039909610731,10.979510526289232,121.10310116876684,8.772936059976928,1.0562266661562314,61.44834378082305,50.355729465311285
9.601719303289428,1.4070611596144358,0.9958576879289467,0.4319481032623805,9.51856705150567,0.3782629339984487,10.979005984030664,121.10772781319343,8.997492752969265,1.0760961564800062,63.693229865282774,51.25757777451168
9.849473494337872,1.4257068704800762,1.0226652451965492,0.4432405135327533,9.76722121075727,0.3825527789913672,10.978549527004361,121.11221671913887,9.220961345010437,1.0778930576992025,65.93836176022887,52.17158364347476
10.09459899761714,1.4437130116171295,1.049854027776746,0.45447751439164136,10.014020024100319,0.3865476468397787,10.978141659055836,121.11680787056788,9.4421071811812,1.1008233540281107,68.1837214725092,53.100273910971026
10.338946440955624,1.461551450461581,1.077411714795744,0.4657679225601585,10.2593887753319,0.39153660331217477,10.977783596608788,121.12143593122744,9.662163982749917,1.1185120257640246,70.42929992545396,54.04207233867564
10.580595165723935,1.478743867325364,1.1053271958662663,0.4770299502572553,10.502814646577463,0.3958733225284289,10.977476129541174,121.12594036032269,9.879842052003369,1.1208080750828173,72.6750849885866,54.99406605533703
10.823199713602662,1.4961987016118303,1.1335893046634737,0.488587754994218,10.745451952563599,0.40361117629419124,10.977219445048831,121.13053577493235,10.097807183978148,1.1426383918978253,74.92105881217867,55.958695620037
11.061665181070566,1.5126087507838248,1.1621888291847426,0.5000427264933819,10.985955658135936,0.4079802482864791,10.977015267126262,121.13517000454961,10.312516775797121,1.160331640633432,77.16721058171242,56.93463571198445
11.299038182245567,1.5286726979982375,1.191115529712988,0.511238465187292,11.224737409036607,0.4091667334309239,10.976863825810142,121.13985730092125,10.52569968777243,1.1791304138765573,79.41352806333452,57.921552430497975
11.5374642603565,1.5448742504948336,1.2203601977380458,0.5228747927962917,11.462902533588931,0.41732040341579146,10.976765880011953,121.14447436357331,10.739418234559707,1.185936867298264,81.6599989971146,58.9170994294459
11.77317876345478,1.5602368837247287,1.2499150062503759,0.5343428718923393,11.6996088498272,0.42081427128877025,10.976722313673235,121.14907315706802,10.951073260046542,1.197248720990302,83.90660585276783,59.92156367729745
12.008710175286978,1.5753550104380987,1.2797719450609293,0.5460934517362235,11.935362331336364,0.4279118562522882,10.976733806659468,121.15373664601525,11.162167882313952,1.2168590070589933,86.15333348046988,60.93574411319201
12.246804834110662,1.5909750887268364,1.3099236155103426,0.5576321436712475,12.171565468190238,0.4303857575958341,10.9768015218433,121.1583202733187,11.375199924805202,1.2223380030432327,88.40016911644489,61.95699054879859
12.48005118733272,1.6054012895356322,1.3403649968968239,0.5691963678432221,12.406095038866624,0.43395931168162155,10.976926644332707,121.16291232379301,11.584739806479774,1.2361163291820716,90.64709371421486,62.986256684880324
12.710622461512685,1.619259742604637,1.3710884719039313,0.5807888921427617,12.63854662515223,0.43790448193787196,10.977109533385374,121.16750190218197,11.79144038434606,1.2489570908081582,92.89409263432026,64.0229853438483
12.944774307310581,1.6341596644269374,1.4020863056357484,0.5923304408134865,12.871179976966232,0.4409449700722973,10.977350417058915,121.17213744314203,12.000436857459135,1.266610042176229,95.14115057233721,65.06757430073795
13.172971321735531,1.6478878218726432,1.4333537378988694,0.6041610362604779,13.101536901667714,0.44782891296085003,10.977651118650101,121.17677491483946,12.205128079163842,1.2800228896469745,97.38825242035091,66.118978384942
13.397836786229163,1.660998394629116,1.4648832165985368,0.6162292864132588,13.329192074481398,0.4554635487536524,10.978011304629035,121.18139607514757,12.406292585190386,1.2911830476287767,99.63538286834955,67.17657993241342
13.621111724991351,1.6738095242791684,1.4966671481670346,0.6281583598537709,13.55458684032783,0.4586924110251705,10.978430863120593,121.1860246176373,12.60547902667895,1.3045657162464184,101.88252578303218,68.2404533812331
13.849976819008589,1.6879210419218391,1.5286989206215367,0.6397933707302038,13.780858217272907,0.4582751918730097,10.978910236386582,121.19070095611589,12.808741827961057,1.322215445508925,104.12966550327837,69.31096324528733
14.078546037431806,1.7018490925060212,1.5609755133918952,0.651529693740731,14.007534041069448,0.46142402648549335,10.979451758554205,121.19533552222869,13.01258318289183,1.3307290585339664,106.37678606063128,70.38636883806106
14.303984489757568,1.7148647064564704,1.593493233260233,0.6633355564314485,14.233197342604399,0.46545606838158127,10.980056307394989,121.20002139998398,13.21403575502336,1.3487575239293688,108.62386851012707,71.4679407584032
14.520847270265222,1.7257810358967813,1.6262471234076656,0.675097404428217,14.45482005737722,0.4683252605508068,10.980724428081885,121.20465880422958,13.408150317613035,1.3564140839027616,110.87089791707695,72.55378094668657
14.742340911179781,1.7377825557943318,1.6592293733847328,0.6869997557680325,14.675867981277406,0.4730756185129385,10.981454414548352,121.20934101240294,13.604502382455394,1.3733901701822921,113.11785690672696,73.64521034616952
14.962425416335464,1.7495980456417293,1.6924358641845174,0.698871333502768,14.896004856564105,0.4762884816706326,10.982248195796274,121.2140187559601,13.80017520324327,1.3855070543668282,115.36472932621837,74.74118142045987
15.18084729788825,1.7612851069925843,1.7258623859961517,0.7109098678211491,15.114927521441132,0.48147994638522074,10.98310631152708,121.21865866636065,13.994382789358497,1.393744987023595,117.61149753816426,75.84092495924787
15.394530809018761,1.7722223157923407,1.7595044596819207,0.7230452516573956,15.331223988905549,0.48647430796960656,10.984029061277397,121.2234504811788,14.184507495490834,1.4224590780357143,119.8581426832825,76.947446561907
15.610176770016551,1.7838798802906168,1.793356457783375,0.7349545905436091,15.546727439854294,0.4871483569129109,10.985016654711217,121.22819729371427,14.375386610161513,1.4304137176836278,122.10465354472399,78.05720905877818
15.82409245800227,1.7953327009372104,1.8274148137425072,0.7470057526629043,15.761060603428632,0.49101555491346127,10.986069519538432,121.23292961469068,14.565033518709242,1.4408595699058113,124.35101033747196,79.17055743470969
16.030927933752537,1.8052854444887938,1.861675490566995,0.7591464640354738,15.971857454162091,0.4953434776896235,10.987188183236867,121.23765025838986,14.748771103098989,1.4516430584988678,126.59719471074641,80.2873720817067
16.243225620593876,1.816472863208547,1.8961324679548852,0.7711955292889536,16.182715398725122,0.49740001752312313,10.988371437648311,121.24228138794112,14.935698056826368,1.4535312249022754,128.84318974986672,81.40615892430945
16.453896017745137,1.827243101949101,1.9307832914055325,0.783639720780911,16.392957062926143,0.5050743156531536,10.989620917127468,121.24708214231471,15.121962658129632,1.4840538686661193,131.0889734160155,82.53123721788684
16.661852287128568,1.837378137969312,1.9656247366801836,0.7960595729864222,16.60174169903621,0.5092487443958065,10.990938224364072,121.25185231094272,15.305925289867446,1.4933972397916828,133.3345337510109,83.65898228506956
16.866627167910337,1.8468187461215875,2.000653173949104,0.8082913264667209,16.80837773345411,0.509949149047278,10.992322603589855,121.2566512737566,15.486884313169867,1.5084475179203762,135.5798515547067,84.79029021178987
17.06934374338016,1.8558613937536863,2.035864468489308,0.8206361007025018,17.012899401132017,0.5133455737607429,10.993773961556144,121.26150482978261,15.665598046733066,1.5265295356374184,137.82491011731327,85.92547626068034
17.27451974945143,1.865552005789346,2.0712544744601473,0.8329824035125147,17.2171346466057,0.5162003145279026,10.995292356121354,121.26636762796429,15.845832482678816,1.5395958933547649,140.06969355978072,87.06361796674351
17.474977941717952,1.8743470656195906,2.106820823100861,0.845138467147689,17.419309325981885,0.5162377541908487,10.996878945617937,121.27116702829449,16.022599161602557,1.5443129577231267,142.31418335810304,88.20332282632276
17.680251692887396,1.8843204751603264,2.1425597561174072,0.8573528960728085,17.622172235045582,0.51855855083379,10.998532876721583,121.27601574892533,16.202527257613838,1.5613023745010386,144.55835931748152,89.34646620347831
17.8803479061462,1.8932707557909718,2.1784697984112427,0.869783519719665,17.823375651147217,0.5238675219840486,11.000256572151557,121.28082109589789,16.378948289668187,1.5683635272214815,146.80220381356776,90.49130016872257
18.0786959878169,1.9019201916712876,2.214547542098444,0.8820925863583322,18.022882881574333,0.5256397808605464,11.002049067406915,121.28570887832964,16.553272266406566,1.589225035400103,149.04569706879556,91.63995012784254
18.27570774545893,1.9103372118248896,2.250789798097685,0.8944721205440647,18.220836444292217,0.5287241350162264,11.003910797066055,121.2905291315889,16.726110787596554,1.5934894477708048,151.2888236939907,92.7896521895234
18.468707563355565,1.9179424486843324,2.2871934618451633,0.9069571555120702,18.41625180374831,0.5327518347335217,11.005841273930855,121.29530558145753,16.895445814356208,1.5996914074382473,153.53156260028481,93.94074283426048
18.667224335018545,1.9268525732576032,2.323754728247877,0.9193526687495681,18.612349906470627,0.5344102156056313,11.007839868892916,121.30014535913884,17.068497048923746,1.618188009407614,155.77389433979988,95.09504522473722
18.85840617166832,1.934403559197711,2.3604725306504406,0.9318082404318385,18.805922475177795,0.5372652726580158,11.00990925426595,121.30498496481154,17.23642709921114,1.6299746679415346,158.01580149307847,96.25133131753236
19.05664525507018,1.9437497899281175,2.3973432151251473,0.9444305077915457,19.000801575835794,0.5420113757324972,11.012047784286551,121.3098364173406,17.40898235538043,1.642734823187719,160.25726604647934,97.40973543209621
19.252171551343054,1.9528984730365524,2.4343661891762167,0.9571388501260008,19.19537859549746,0.5463494029337251,11.014258094714023,121.31465902673891,17.580296255648136,1.6509459337821977,162.49826824851334,98.56944710186502
19.43473202176392,1.9597239573101366,2.4715396748506464,0.9695684140488837,19.384587118867785,0.5454562648191258,11.016540198703296,121.31939822047264,17.740993211278692,1.6525239415818405,164.7387877162546,99.7294158596078
19.62341604521498,1.9681911584708023,2.5088581737945788,0.9821528789628534,19.57302275719121,0.5486322262476471,11.018890042090788,121.32426060916406,17.904469780623913,1.6776657152764727,166.97880477644503,100.89329960929598
19.809314584359527,1.9763258073490788,2.546319604094606,0.9948029516316212,19.75987975485623,0.5520325817099749,11.021310362382792,121.32920008705129,18.06627824343741,1.6984194379689208,169.21830466203392,102.06018053327836
19.990520518738776,1.983628239832383,2.5839214117149822,1.0074091440357222,19.943911770824343,0.5539610115047888,11.02380092011299,121.33412184611755,18.2240034614224,1.7079479285724404,171.45727136544883,103.22827150928728
20.171231427695602,1.990875068200672,2.621660211298149,1.0200109724816278,20.126049993094057,0.5558737829720175,11.02636011177674,121.33904921048646,18.380520628998056,1.7196319262371151,173.69568630307913,104.3979351010251
20.35395648283884,1.9985204098483385,2.659533351426944,1.0327624715200276,20.307856904808432,0.5599382832292888,11.028988091973588,121.34399194418019,18.538412270369008,1.7325116170818615,175.9335313476622,105.56928729410099
20.538693563081324,2.0066022025423536,2.697539337852504,1.0454354814349174,20.49026934010908,0.5615556959477291,11.03168610332068,121.34888396389097,18.69819337921217,1.7377411898734119,178.17078802362084,106.7410689635448
20.7270130882971,2.0155068180147717,2.7356774713261984,1.0580106483033567,20.67447739141062,0.5619929535115977,11.034455273998901,121.35384156097996,18.861223419429734,1.7563368353640785,180.4074349105358,107.91534284956454
20.904867727309465,2.0223898074062725,2.773947886773385,1.070760107726826,20.855576198082417,0.5658862940565689,11.037298231385648,121.35872634752481,19.016536615788937,1.7593022501933582,182.64345428720117,109.08952749633951
21.07844523852691,2.0285882672802056,2.812347139522899,1.08369758581984,21.033098203595728,0.5712106543878147,11.040211457642727,121.36367708811119,19.166890183929354,1.7777622831123918,184.87882568500936,110.26611194664115
21.255291774403304,2.035697441049996,2.8508715753559954,1.0965200200189122,21.209781432989985,0.5727125854392733,11.043193911318667,121.36870671091305,19.31887265504338,1.7982213535305571,187.11353388614953,111.4452747436734
21.429349928162992,2.042416565038942,2.8895196288940497,1.1094551364608918,21.384845494758338,0.5760694250751273,11.046246982063167,121.37367763087727,19.468955956865102,1.8026562941292121,189.3475626539439,112.62444407503948
21.6063551469706,2.0498302351419473,2.9282891207840294,1.1223005501204804,21.56011661980301,0.5771863843704387,11.049369652057067,121.37868484780607,19.621022974606603,1.8175720800130675,191.58089136704803,113.80532040581805
21.777007270604372,2.055957515088928,2.9671792439185083,1.1353488829905514,21.732970306649804,0.581688021669448,11.052563844947144,121.38369110431836,19.768410324351862,1.8285714164194835,193.81350209005177,114.98717170132456
21.946047828998417,2.0616760269545034,3.006187314109411,1.1483207533846487,21.903728791046888,0.5833905695804086,11.055827735224739,121.38866327198866,19.913578720996156,1.8353852411483809,196.04537690989673,116.1693506655639
22.112408697605133,2.0667261687471994,3.0453110342496075,1.1613813433101159,22.07215794501826,0.586433227969988,11.05916061066091,121.39365859376824,20.056165957823396,1.8487400644819274,198.27649655938148,117.3528723871363
22.279600703623146,2.071922389064715,3.084547922364436,1.1744898961921857,22.239521828945726,0.5893588274788145,11.06256202608347,121.39869870757722,20.19890843005851,1.8648544070283095,200.50684414803982,118.53809253960851
