coupler,coupler,$D^a [mM]$,$D^a [mM]$,$I_{islet}^a\ [pg/islet]$,$I_{islet}^a\ [pg/islet]$,$\gamma^b$,$\gamma^b$,$I_{cell}^b [pg/islet]$,$I_{cell}^b [pg/islet]$,$G^b [mM]$,$G^b [mM]$
2.696762793639209,1.0730048205154203,0.5037754067016067,0.07139722481812139,2.4522280980017968,0.1427941619970819,11.004381649428979,120.98935519883774,2.35642103353166,22.060537170075992,5.436810191196855,35.35622621588485
2.9783703784341924,0.9652048359494774,0.5105374304548604,0.10023981107083844,2.819093788799364,0.17085736396157003,11.00881506386213,120.99383759413419,2.6149461134918965,22.2397318736572,7.672479541564826,35.55965449867923
3.2582498947158456,0.925651765543086,0.5193566179514164,0.12304556198347603,3.1423714757547714,0.18818771474162513,11.01335845014546,120.9983211983496,2.7756249608064536,22.529869325563617,9.907020363374613,35.805201085819654
3.536624928470701,0.914542032935534,0.5297799417894566,0.14246037985079726,3.4430735876085237,0.2001150697197467,11.018067042459734,121.0028071807433,2.838506534259068,22.924918706071935,12.14043048734311,36.09202041678926
3.8134227318223566,0.9190632056144185,0.5415546135191107,0.16002329858582906,3.7316764512797818,0.21106632662422342,11.022993951337412,121.00726589324344,2.803639674122678,23.41811453134916,14.372692686971277,36.419025764328374
4.090087610296905,0.9329006689566036,0.5545195115264505,0.17652771790029242,4.014144063112326,0.22233385249968401,11.028191041317768,121.01170958996424,2.671073768986389,24.002398371873547,16.603774216026068,36.78513488462643
4.365623693098314,0.9523242320378469,0.5685631160595221,0.19157600640938124,4.292962856939994,0.22910059382501438,11.033709837822244,121.01609567515739,2.440859441354405,24.670603463503145,18.83362872689031,37.18891462187441
4.6396248346427456,0.9749470219837941,0.5836002124560764,0.20586616529281723,4.569174503558315,0.23673903000258903,11.039602393982932,121.02049290266221,2.1130491426447406,25.415909993968818,21.062194429105148,37.629381783446675
4.910768695524894,0.9990674564296593,0.5995595233835047,0.21925465540099953,4.842639976297505,0.24212382085373152,11.04592224850785,121.02491487978189,1.6876978269137908,26.231815964160603,23.289398066466674,38.105266848231615
5.180565510760061,1.0239848039092672,0.6163787573314039,0.23252271259410065,5.114045879221521,0.25126052048457037,11.052725275279954,121.0293197150451,1.1648634475277504,27.11229607831426,25.515152585925534,38.61490424457001
5.450484990957193,1.0494847382358374,0.6340040614159079,0.24535501168819243,5.38447139353957,0.25832645016169875,11.060070542385802,121.03378719600992,0.544607552124944,28.052002206238893,27.7393545974046,39.15740362043523
5.718994796741754,1.0749883385175463,0.6523912816046504,0.25804755615772806,5.653690682607703,0.2665108257512624,11.068021254963242,121.03830859322478,-0.1730040159982309,29.046128785231215,29.96188801014796,39.73130666537632
5.9859256179770455,1.1002263054613335,0.6714997229719302,0.27048009105639004,5.921506872749887,0.27348054467477,11.076645595720038,121.04291474986678,-0.9879005769762443,30.091065251539316,32.18261984875426,40.335474771254425
6.251774207456037,1.1251552549532644,0.6912924268253846,0.282384452781046,6.1880704804789275,0.2771922814464144,11.086018015863374,121.04754683690975,-1.900005895178765,31.185209753340377,34.401400483679026,40.96807068560954
6.51723722810857,1.1498484244351632,0.7117364346777322,0.29438098307679733,6.45380559656769,0.28505279512386805,11.096221248619258,121.05220606956703,-2.9092374749016017,32.325529685481165,36.61805887660012,41.6277795699046
6.781154379015788,1.173973071852034,0.732801894962904,0.30639165132771085,6.718344724969938,0.2930226242405106,11.107345876051113,121.0569580568427,-4.015505656017922,33.50953313654421,38.83240278810263,42.31397121584227
7.044685694621876,1.1977520637776833,0.7544610629993258,0.31803861659869465,6.982084576738998,0.29710314189726733,11.119491261895746,121.06160447116194,-5.218712714035064,34.73489802497299,41.044219181872904,43.02358086556222
7.305347939953208,1.2205834039951482,0.7766896478715353,0.3297187842415724,7.2439822184387594,0.30368277235471003,11.13276620733086,121.06626477491332,-6.5187519857427105,36.000026173623816,43.253262779675424,43.75670390014758
7.565966548398137,1.243166220687647,0.7994625202554744,0.3415832248890233,7.5049293611664325,0.3122286518227783,11.147290106164292,121.07104168000009,-7.915506495861337,37.303765055552205,45.4592653173022,44.51350346981989
7.825490231625736,1.2652818537624766,0.8227582944964524,0.35293687854206535,7.764846636680886,0.31392876637785944,11.163193902233616,121.07566348940615,-9.408847990678623,38.64456477708947,47.66193255363032,45.29028892321489
8.08407033723779,1.2870018275935569,0.8465576580783818,0.3644703112999074,8.023770187050104,0.3207670188842194,11.180620347848162,121.08011319512995,-10.998635846772231,40.02159065869184,49.86092843674123,46.0861690560732
8.341547180898488,1.308319421450111,0.8708417810848914,0.37598091958975965,8.281638711458072,0.32661914367002687,11.199725238373503,121.08444109183563,-12.684715282637626,41.43447248426314,52.05588178895414,46.901195979560676
8.59831246198155,1.329359886602703,0.8955934398982208,0.38743848830014654,8.538617652608082,0.3317177910396694,11.22067849081941,121.08851655392994,-14.466915878932923,42.882575693886245,54.246386086568236,47.73351193604937
8.85223279776983,1.3496112475087383,0.920796793885529,0.39872251560457195,8.79372329567559,0.33508127965273776,11.24366455944255,121.09235585562644,-16.345050079515204,44.36592484877307,56.43199029751122,48.58315096089056
9.10254921275191,1.3688979598849857,0.9464353945513722,0.4101837122333038,9.046084504341707,0.3417776217276528,11.268883747281507,121.09581577968238,-18.318911311449483,45.88419093582045,58.61220153234899,49.44840715798958
9.352973761968315,1.3881868715582737,0.9724920837907121,0.42136557284596354,9.297122101532295,0.34393045527034616,11.2965525444597,121.09873365768026,-20.38827219628729,47.43708234577189,60.786476706154644,50.3274819619282
9.601719303289428,1.4070611596144358,0.9989535133645404,0.4328072706692916,9.546653047669679,0.3510352531402933,11.326904307934456,121.10111574834959,-22.552882434800267,49.025159528376456,62.95421938225627,51.22088872149094
9.849473494337872,1.4257068704800762,1.0258062662614975,0.444120314941371,9.79493002872914,0.35474724200247376,11.360190901556052,121.10272384458177,-24.812466520583257,50.6480514351411,65.11478341650218,52.12622604284274
10.09459899761714,1.4437130116171295,1.0530385335732717,0.45544765141519866,10.041260815225542,0.3591623357660616,11.396682323073037,121.10348584120496,-27.16672165086493,52.306274084045356,67.26746204309165,53.04343446217967
10.338946440955624,1.461551450461581,1.0806379003915936,0.46672104484074795,10.286224831128493,0.36280733965327955,11.436668415553868,121.10326639965555,-29.615315136499703,54.000179491796096,69.41149187088013,53.971849435834685
10.580595165723935,1.478743867325364,1.1085935351147782,0.4781008382526207,10.529151636641473,0.36811545307391025,11.48045937367715,121.10196147682518,-32.15788199333474,55.7304304060451,71.54604896623641,54.91144881395557
10.823199713602662,1.4961987016118303,1.1368941006658133,0.48957092315228395,10.771533504361287,0.3735814120732022,11.528386847116053,121.09928910589693,-34.79402239853516,57.49680218709249,73.67024856619537,55.86004253303401
11.061665181070566,1.5126087507838248,1.1655309682828374,0.5011217150482782,11.011569302761927,0.37892940324827307,11.58080343157053,121.09498999163706,-37.52329907659441,59.29926582734262,75.78313814010471,56.815969441937035
11.299038182245567,1.5286726979982375,1.1944935052015353,0.5126006458421419,11.249881905969232,0.38225767824309853,11.63808350416366,121.08912704769656,-40.34523443644866,61.13994037270248,77.88369802106172,57.78222453761376
11.5374642603565,1.5448742504948336,1.2237725098675583,0.5241732534513467,11.48785563907586,0.3870745587242969,11.700626919278875,121.08123332679895,-43.25930772162974,63.0176887084355,79.97085283417255,58.754746670864485
11.77317876345478,1.5602368837247287,1.253360840055393,0.5356728842363,11.724300547270104,0.39009344781345806,11.768855011789128,121.07120165275202,-46.26495262840763,64.93385091499404,82.04345395136625,59.73471089158796
12.008710175286978,1.5753550104380987,1.2832502967503387,0.547078361969147,11.959885948570445,0.3922727204378611,11.843214759603143,121.05871804364827,-49.361554245930165,66.88848353031148,84.10029395390302,60.72066300000171
12.246804834110662,1.5909750887268364,1.3134338330419268,0.5588294501856107,12.196319800801575,0.3998927659027031,11.924177465843968,121.04347058887515,-52.54844653978944,68.88175925182094,86.14010190591216,61.71143976916636
12.48005118733272,1.6054012895356322,1.3439065183338244,0.5705485886569764,12.430750596569851,0.4039989381837167,12.012239406700246,121.02529251003995,-55.82490968890488,70.9150545403707,88.16154715511948,62.70816755764926
12.710622461512685,1.619259742604637,1.3746605544292834,0.5820050321090655,12.662839139346033,0.4040842722536007,12.10792432713788,121.00377521769794,-59.19016757234931,72.98805661185742,90.16324848681688,63.708836157716945
12.944774307310581,1.6341596644269374,1.4056880967400502,0.5936955312951165,12.895543667953461,0.4096168627003223,12.211781150195748,120.97851665164713,-62.64338562171906,75.10060399048307,92.14377138577402,64.7118118878745
13.172971321735531,1.6478878218726432,1.4369846768677235,0.6052423034907761,13.125575949437916,0.4114773196923638,12.324384529725648,120.94938131629203,-66.18366864416748,77.25478751836225,94.1016349690035,65.7194489810769
13.397836786229163,1.660998394629116,1.4685426021169405,0.6172567631549098,13.352603418752551,0.4205510810233483,12.446339263464324,120.91583945138,-69.81005881726742,79.44965508009443,96.03532810136676,66.72883435650316
13.621111724991351,1.6738095242791684,1.5003537502489053,0.6291876447672842,13.577330709900707,0.42404850542537104,12.578275212785229,120.87747594386622,-73.52153455559164,81.68531010364018,97.94330463185906,67.73895605351048
13.849976819008589,1.6879210419218391,1.5324115388502833,0.6410372359087023,13.803700369317085,0.4260983156482279,12.720849385252222,120.83401274736381,-77.3170090476051,83.96313719782498,99.82399714644998,68.750950743341
14.078546037431806,1.7018490925060212,1.5647137234045658,0.652921206875471,14.0307407383807,0.4293181628091593,12.87474866840057,120.78499867352717,-81.19532944727689,86.28318944992513,101.67583132721484,69.76379645582385
14.303984489757568,1.7148647064564704,1.5972569930017926,0.6645496207320475,14.256548669189215,0.42880246367701386,13.04068750841543,120.72994626118982,-85.15527661889791,88.64533749219035,103.49723143875599,70.7762457985133
14.520847270265222,1.7257810358967813,1.630036313261371,0.6765731378760896,14.477450044360012,0.4362601953498267,13.21940759732388,120.66834003849621,-89.19556526374072,91.04933791523656,105.28663107939065,71.7869481142137
14.742340911179781,1.7377825557943318,1.6630427147611044,0.6885388181138775,14.698211477138102,0.43942921490712394,13.411677600815892,120.59984845327686,-93.31484439317137,93.4966763253084,107.04248489439487,72.79725300731764
14.962425416335464,1.7495980456417293,1.6962727483478375,0.700563005724421,14.918196191545576,0.44311056573615654,13.618296913336962,120.52387528228175,-97.5116983819753,95.98663073451468,108.76328667625785,73.80519508031584
15.18084729788825,1.7612851069925843,1.7297222930938005,0.7126049917224598,15.136959183495492,0.44633012810341627,13.840090847807005,120.43997878938387,-101.78464872390032,98.51996400796757,110.44757400266826,74.81108623248795
15.394530809018761,1.7722223157923407,1.7633869529818185,0.7247164814437592,15.352740126196295,0.4501279214182915,14.077913810499012,120.34768841980613,-106.13215617649257,101.09728297375653,112.09394569508731,75.81503308512745
15.610176770016551,1.7838798802906168,1.7972607529954985,0.7367931935579127,15.568009361624718,0.4525565098703929,14.332648887764663,120.24623246558191,-110.55262344516814,103.71665189369281,113.70107309520245,76.81354260458271
15.82409245800227,1.7953327009372104,1.8313403245410882,0.7488361193289802,15.782155754975975,0.45461288853136117,14.60520147299394,120.13522439921516,-115.04439848847687,106.37965517072526,115.26770388893783,77.80821220113059
16.030927933752537,1.8052854444887938,1.865621797798667,0.7609864468175993,15.99219881137833,0.4585488350536548,14.896507397759706,120.01413441228199,-119.60577794723213,109.08666554072643,116.79268418997526,78.79894948025006
16.243225620593876,1.816472863208547,1.9000986065366305,0.7729494902139161,16.202919664327055,0.4586787655440486,15.207529830746353,119.88227173669088,-124.23501165024936,111.83673393736284,118.27496424131095,79.78388894594264
16.453896017745137,1.827243101949101,1.9347689177957363,0.7852246621603337,16.413164045196027,0.46500349265422036,15.539255462354049,119.73926335602134,-128.93030713498592,114.63173759945542,119.71360336616635,80.7650696991531
16.661852287128568,1.837378137969312,1.9696296416805126,0.7975230395082054,16.621811741497368,0.4687498695288624,15.892701550154015,119.58424348541944,-133.68983458913863,117.46934697477526,121.10778552293777,81.7388996595263
16.866627167910337,1.8468187461215875,2.004676999466028,0.8098989030342091,16.828068901319057,0.4726139312760223,16.268904161872342,119.41679649899835,-138.5117324348539,120.35116691030092,122.45681329257786,82.7070972082484
17.06934374338016,1.8558613937536863,2.039906559220981,0.8222582065703588,17.03210023790598,0.4751206296451759,16.668928338913247,119.23614765958143,-143.39411258883774,123.27577291655173,123.76012365147471,83.66743151552564
17.27451974945143,1.865552005789346,2.075314202462323,0.8343596391051887,17.236246994230896,0.4737045078564852,17.093859117710963,119.04191569507825,-148.33506640605628,126.24504013450107,125.01728224381804,84.62200770449905
17.474977941717952,1.8743470656195906,2.110897998267319,0.8465290412893454,17.43809110065922,0.47600048311409354,17.5448105041869,118.83327797584309,-153.33267043158412,129.25718372379126,126.22799330018461,85.56826066156432
17.680251692887396,1.8843204751603264,2.1466538312961347,0.858814379890429,17.641190422233194,0.4799138240590424,18.022914160043,118.609663844856,-158.38499264977872,132.3125055678762,127.39208935759962,86.5063411769175
17.8803479061462,1.8932707557909718,2.182580735825468,0.8710794355450582,17.84232745692134,0.48223854346425715,18.52932489127852,118.37039539413134,-163.49009785614908,135.4104211643888,128.5095347929746,87.43532918608973
18.0786959878169,1.9019201916712876,2.2186751617700793,0.883298507125253,18.041608101688325,0.48374133145893133,19.065217290073633,118.11501049049062,-168.6460539381951,138.5519614933596,129.58041996508837,88.35634930481983
18.27570774545893,1.9103372118248896,2.2549337281961925,0.8957599886260823,18.239291241858155,0.4892997627237666,19.63179030432366,117.84264593608957,-173.85093727707863,141.735039787857,130.60495993867517,89.26673483953306
18.468707563355565,1.9179424486843324,2.2913532479433343,0.9084284360180035,18.434168768581003,0.49535494220840437,20.23025640984997,117.55315032150914,-179.10283816978335,144.9627773234465,131.5834807921201,90.17019088132118
18.667224335018545,1.9268525732576032,2.3279297245899215,0.9209376478157606,18.63040110701695,0.49609200425003647,20.861858398886397,117.2454927905261,-184.39986597001553,148.23171954183826,132.51642430387437,91.06252410737298
18.85840617166832,1.934403559197711,2.3646626970148645,0.9335287051915828,18.823642346076667,0.4990653531446575,21.527846517041326,116.91934885940535,-189.74015403352678,151.54343271982677,133.40432437881827,91.94558755864125
19.05664525507018,1.9437497899281175,2.401548129157163,0.946114104639883,19.018915811553597,0.5012609463108898,22.22949495795183,116.57390770584782,-195.12186397984624,154.89593912807933,134.24780990369618,92.81707627698653
19.252171551343054,1.9528984730365524,2.438586057513021,0.9586756765631497,19.213848145212978,0.5029933772655261,22.9680887167342,116.2091159099513,-200.54318995401263,158.29217371716143,135.0475873146206,93.68046119174488
19.43473202176392,1.9597239573101366,2.475774669961538,0.9713457059622993,19.402126145083457,0.5065876786285745,23.744940959382802,115.82391376129917,-206.00236177816987,161.72825361217247,135.80444131605327,94.53133183658007
19.62341604521498,1.9681911584708023,2.513107339385897,0.9841471378022006,19.590138027910143,0.5109395937009382,24.561367179034278,115.41801528402624,-211.49764878675342,165.2051984399943,136.51921044290066,95.37096442271715
19.809314584359527,1.9763258073490788,2.5505824584979564,0.996832750611982,19.776623517274857,0.5117542687718527,25.418702728347853,114.9911763798372,-217.02736207842827,168.72391567608634,137.19278791733086,96.20051701090415
19.990520518738776,1.983628239832383,2.588197595498059,1.0094071940455487,19.959998754318804,0.5116913223788838,26.318302218802273,114.54269351150633,-222.58985692635179,172.28232706021348,137.82611138373613,97.0178022510312
20.171231427695602,1.990875068200672,2.6259491477976553,1.0221687944290065,20.14157064491883,0.5159054885519111,27.261527149938047,114.0723679191678,-228.18353495374322,175.8810843908407,138.42014747485518,97.82372110553521
20.35395648283884,1.9985204098483385,2.6638344626990147,1.0348514305576135,20.323247505817562,0.517123675578625,28.24975619884208,113.5797536224552,-233.80684527754784,179.51913786474344,138.9758885987103,98.61730513584175
20.538693563081324,2.0066022025423536,2.7018524718587287,1.0477675443398542,20.505982297472656,0.522364259426483,29.2843777728267,113.0647880975518,-239.45828573778272,183.1971935308683,139.49434101954103,99.39953975996663
20.7270130882971,2.0155068180147717,2.7400026823743246,1.0605862510507529,20.69103694939986,0.5235789450230575,30.366796916816384,112.52703051010047,-245.1364036090672,186.91364342351667,139.9765203949064,100.16890107032707
20.904867727309465,2.0223898074062725,2.778285651700571,1.0732771302292465,20.87201854167506,0.5233015424015487,31.49842493282631,111.96638077648821,-250.83979607000947,190.66832205415648,140.42344026826322,100.92545370444935
21.07844523852691,2.0285882672802056,2.8166973399347626,1.0860951146510691,21.048824473749846,0.5265217869597992,32.6806850223802,111.38289393712371,-256.567109990865,194.4613891430609,140.83610843494534,101.669625711203
21.255291774403304,2.035697441049996,2.8552336410502903,1.0989658277686858,21.225176772568375,0.5294400823229639,33.91501341667026,110.7764696484878,-262.31704185158014,198.29186929791484,141.21552126295865,102.40064805557937
21.429349928162992,2.042416565038942,2.8938932016608305,1.1118573965139498,21.399907760787755,0.5317880111175776,35.2028538165614,110.14745026882237,-268.0883373133838,202.16032990092413,141.5626567825675,103.11939961897005
21.6063551469706,2.0498302351419473,2.9326738919480704,1.1246807797612934,21.575301331933588,0.5325869026911532,36.54566418984905,109.49600940619743,-273.87979045137763,206.0660921386373,141.87847271375358,103.82545628468702
21.777007270604372,2.055957515088928,2.9715752060874365,1.1377885453182943,21.74784930376336,0.5384840945765291,37.94491061847657,108.82226411217334,-279.69024262204766,210.007840133045,142.16390027850866,104.51774351263762
21.946047828998417,2.0616760269545034,3.0105941480142064,1.150837906477339,21.918168675154448,0.5403280038394739,39.402063629124314,108.12689289879482,-285.5185819528997,213.9860018733019,142.41984011605382,105.19700764766161
22.112408697605133,2.0667261687471994,3.04972835292574,1.1639787652017213,22.086033631581813,0.5434629525225285,40.918606436345726,107.41094659387973,-291.3637414239347,218.00171057570057,142.64716245234013,105.86472190088872
22.279600703623146,2.071922389064715,3.088975264399778,1.1771188379071609,22.25308686075732,0.5454678399186836,42.49603854352608,106.67437543118048,-297.224697817117,222.0515691693869,142.8467057812959,106.51773013746335
