coupler,coupler,$D^a [mM]$,$D^a [mM]$,$I_{islet}^a\ [pg/islet]$,$I_{islet}^a\ [pg/islet]$,$\gamma^b$,$\gamma^b$,$I_{cell}^b [pg/islet]$,$I_{cell}^b [pg/islet]$,$G^b [mM]$,$G^b [mM]$
2.696762793639209,1.0730048205154203,0.5037754067016067,0.07092458259907528,2.5989489148487337,0.14155246101052704,11.004381649428979,120.98934503822368,2.35642103353166,22.060527038233566,5.436810191196855,35.35621610105571
2.9783703784341924,0.9652048359494774,0.5113988659431925,0.10011967080585882,2.944003896031063,0.162973148995674,11.008815057924949,120.99379887936199,2.614946113753831,22.23968852615349,7.67247917316854,35.55959639093917
3.2582498947158456,0.925651765543086,0.5208629155677045,0.12340121722185231,3.236875615781173,0.17611628547602085,11.01335842430126,120.99831560289256,2.775624976842664,22.529868543251347,9.90701859665569,35.80522118489071
3.536624928470701,0.914542032935534,0.5317285181517946,0.14312332051134305,3.518096617422998,0.18413260444559795,11.0180670194095,121.0028071123837,2.8385066275077406,22.924924937411063,12.140428523533046,36.09205696258954
3.8134227318223566,0.9190632056144185,0.543826288645505,0.16086931389905434,3.795717715169303,0.19248251478131717,11.022993933758698,121.00729351421444,2.80363985337317,23.418157316023947,14.372690729331225,36.419163317115846
4.090087610296905,0.9329006689566036,0.557047151363804,0.1771849021869422,4.072505505871959,0.1999532366514217,11.028191046207212,121.01176974412705,2.671074034529738,24.002482172682264,16.60377326188609,36.785410709337135
4.365623693098314,0.9523242320378469,0.5713088070770027,0.19232785317965512,4.348217251128517,0.20618503083550024,11.033709890791215,121.01617944038581,2.4408597492438275,24.670714563543974,18.833629936212674,37.18930339634167
4.6396248346427456,0.9749470219837941,0.5865392251580488,0.20699268307220517,4.622479960438795,0.2151213551556853,11.039602514356375,121.0206199086647,2.1130493974196725,25.41606672205765,21.06219864473678,37.63000380396371
4.910768695524894,0.9990674564296593,0.6026736842904938,0.22073992603600934,4.894161616102792,0.21954788332589026,11.045922462944873,121.02501673793259,1.6876978964719456,26.231951621742677,23.28940682928078,38.10572940122658
5.180565510760061,1.0239848039092672,0.6196528318396304,0.23405211088252859,5.164244345156476,0.22606317316156185,11.052725576446392,121.02945227211211,1.1648631326970644,27.112456990973822,25.515164956916124,38.61556421189249
5.450484990957193,1.0494847382358374,0.6374260865704855,0.2469530734537473,5.434100721729919,0.2318924003586507,11.060070947743952,121.03391832410503,0.5446066946533392,28.052168455859515,27.739371654111892,39.1580451062482
5.718994796741754,1.0749883385175463,0.6559523726609768,0.25950753181959224,5.702779678278603,0.23742675401489444,11.068021772080101,121.03851424564024,-0.1730056214673823,29.046318961020653,29.961909671779722,39.73250922111129
5.9859256179770455,1.1002263054613335,0.6751921150862472,0.2715790744506388,5.969955803826451,0.24085025766266746,11.076646244036965,121.04309825236645,-0.9879031326127006,30.091265903059615,32.182648761197925,40.33648072992733
6.251774207456037,1.1251552549532644,0.6951089076610515,0.2835600002374279,6.235961640486494,0.2472798631731601,11.08601881028153,121.04769465420289,-1.9000097186944913,31.185414264444475,34.40143580175936,40.968756149487746
6.51723722810857,1.1498484244351632,0.7156699928309536,0.295554222256098,6.501421274384484,0.2545208807061003,11.096222196589224,121.05239269049271,-2.909242847497808,32.32577838139187,36.61809928715229,41.628805650652694
6.781154379015788,1.173973071852034,0.7368471156951273,0.3073500074103552,6.765531484270468,0.2592670393507942,11.107347016222775,121.05709530878977,-4.0155127995531075,33.509755882394415,38.832449624780566,42.31451613358469
7.044685694621876,1.1977520637776833,0.7586128644325072,0.31906383578400516,7.029059807071462,0.264737217492698,11.119492580997758,121.06177134039655,-5.218721910321619,34.73518239600768,41.04427061602473,43.02440960358674
7.305347939953208,1.2205834039951482,0.7809433865913888,0.33089320001597305,7.290173337096348,0.2721565155335875,11.132767766714096,121.06647566458292,-6.518763436935842,36.00040417408242,43.253319818060845,43.757969948029675
7.565966548398137,1.243166220687647,0.8038128290208988,0.34271614725069793,7.550766008673236,0.27809226812244725,11.147291990928352,121.07111634627175,-7.915520448004827,37.303908581629244,45.45932944957167,44.51331037849225
7.825490231625736,1.2652818537624766,0.8272013038804289,0.354175944636425,7.810375720495358,0.2795402751926854,11.163195915753022,121.0757272993957,-9.408864754368551,38.64471777266708,47.661998835392296,45.28998221077446
8.08407033723779,1.2870018275935569,0.8510896311199758,0.365560604877497,8.069031215971336,0.28376619067597214,11.180622507818043,121.08019176639806,-10.998655514209531,40.02181219576221,49.86099645681679,46.08603460231743
8.341547180898488,1.308319421450111,0.8754595062928274,0.37709583008966263,8.326610638992861,0.2906420383508102,11.199727612547576,121.08445013874301,-12.684737932635471,41.43452058008533,52.05595201905817,46.90026482850633
8.59831246198155,1.329359886602703,0.900293644721387,0.3884992589844082,8.583403123309836,0.29402192962497636,11.220680922153406,121.08854880591952,-14.46694161137566,42.88272694730206,54.24645600281656,47.732871795942685
8.85223279776983,1.3496112475087383,0.9255767474824097,0.3999368663888546,8.837759860092774,0.29911432218159983,11.243667153408751,121.09233913308684,-16.345078884856775,44.365925018841395,56.43206070642918,48.58193308112825
9.10254921275191,1.3688979598849857,0.9512913922953885,0.4113442852626781,9.088744021486491,0.30328605480792775,11.268886351492256,121.0958079857077,-18.318943206453696,45.88424702839758,58.612270675599575,49.44732135151856
9.352973761968315,1.3881868715582737,0.9774198897357564,0.4227183098738027,9.339137986535206,0.3071714126616281,11.296555224922486,121.098785830256,-20.388307127403095,47.43740184344515,60.78654489759356,50.327166638732464
9.601719303289428,1.4070611596144358,1.0039500368002336,0.4340591069667956,9.588068627519533,0.3108932181339409,11.326907367329113,121.10110042099241,-22.552920362446457,49.0251808746641,62.954288717359304,51.21972131392367
9.849473494337872,1.4257068704800762,1.0308689482335467,0.4454964458333978,9.83591152005829,0.3161992344428327,11.36019400600344,121.10276958023198,-24.812507494352758,50.64837264478886,65.11485143005848,52.12586835443659
10.09459899761714,1.4437130116171295,1.0581649398081936,0.4568598623249431,10.081432015169412,0.31918341676678336,11.39668584021274,121.10353745163316,-27.16676561208442,52.306621469761936,67.26753085758537,53.04316095423997
10.338946440955624,1.461551450461581,1.0858253249025438,0.4682748940757071,10.325863723875955,0.3236228694440474,11.436672395793721,121.10335643433739,-29.615362118929625,54.00072666352805,69.41156159993261,53.97209065237974
10.580595165723935,1.478743867325364,1.1138397021277342,0.4798954382908984,10.5679169469513,0.33017461430387934,11.480464093503542,121.1020238385562,-32.15793204726651,55.73080994253926,71.5461208038032,54.911316735083126
10.823199713602662,1.4961987016118303,1.1421963657194283,0.49114158725048224,10.810257464647293,0.32866232353330627,11.528392109205015,121.09940526025494,-34.794075617566705,57.49749254245276,73.67032139096409,55.86064063441673
11.061665181070566,1.5126087507838248,1.1708882946695667,0.5026016861819363,11.049342499813065,0.33489451829790173,11.580809683538973,121.09530114213754,-37.52335549890995,59.30114281214739,75.7832136079669,56.81921455863305
11.299038182245567,1.5286726979982375,1.1999033723259345,0.5141426386273683,11.28690092288889,0.3395122761009138,11.638092464534566,121.08932304238023,-40.345294177532196,61.14103431547265,77.88378249388188,57.78383794765835
11.5374642603565,1.5448742504948336,1.2292327443137765,0.525705389786331,11.52499499451369,0.3431638459322141,11.700637530651875,121.08150710279008,-43.25937118101865,63.019288689306784,79.9709417168051,58.75740750616708
11.77317876345478,1.5602368837247287,1.2588705856178422,0.5372053452135729,11.761025502579287,0.3454957499891651,11.768868093378842,121.0715192411079,-46.26502001658082,64.93573297433309,82.04354941751808,59.73793652973047
12.008710175286978,1.5753550104380987,1.2888080388947856,0.548954864277993,11.996495408937335,0.3522172399966834,11.843230830854736,121.05907854344856,-49.36162585346028,66.89065233183614,84.10039685014635,60.72443419063404
12.246804834110662,1.5909750887268364,1.319038296554936,0.5605730616087904,12.233902499312535,0.35356396149590263,11.924197081010789,121.04379436572981,-52.548522708937526,68.88364339013991,86.14021288231015,61.7146404377228
12.48005118733272,1.6054012895356322,1.349558196903672,0.5721247697077468,12.467817048775032,0.35554932029457414,12.012262214324437,121.02564970664207,-55.824990801513195,70.91719323006463,88.16166416741908,62.71178465336775
12.710622461512685,1.619259742604637,1.3803580045641866,0.583595162955906,12.698891760315746,0.35719072101720645,12.107950860867277,121.00414520327209,-59.1902538863942,72.99029973847702,90.16337187495083,63.712575949135356
12.944774307310581,1.6341596644269374,1.4114292173471767,0.5953433919116945,12.932261715643108,0.3641200844692954,12.211811713175848,120.97892113006229,-62.64347743336111,75.10313217787784,92.14390070643276,64.71597493809378
13.172971321735531,1.6478878218726432,1.4427693904435728,0.6072359095789988,13.161325755063444,0.36932967629081725,12.324419757118449,120.94971371560746,-66.18376621510834,77.2567531766844,94.1017704103142,65.72254811681772
13.397836786229163,1.660998394629116,1.4743689329188783,0.6191555667398734,13.386862255167216,0.37265228199314715,12.446378262131475,120.91621951062587,-69.81016243062913,79.4520518227974,96.03546639531851,66.73254667868902
13.621111724991351,1.6738095242791684,1.5062195320497267,0.6306950342083318,13.610419759061188,0.3695568765502048,12.57831892487593,120.8778843847215,-73.52164437342435,81.68798038584767,97.9434464899823,67.74300409200816
13.849976819008589,1.6879210419218391,1.5383150322304573,0.6427211063038281,13.838052499573678,0.3793545139912006,12.720898490399122,120.83436351765681,-77.31712524965405,83.96536233800943,99.82414248492569,68.75414986770123
14.078546037431806,1.7018490925060212,1.5706554153293837,0.6545901258572109,14.066262681502849,0.37991555383295705,12.874802445061505,120.78542257054883,-81.19545218255371,86.28609727631073,101.67597742564976,69.76794234640306
14.303984489757568,1.7148647064564704,1.6032375589129515,0.6664927609640525,14.292082738596946,0.3829674192315815,13.040747507242486,120.73035186620905,-85.1554059414193,88.64813833651154,103.49737962707877,70.7800849771189
14.520847270265222,1.7257810358967813,1.6360550257959403,0.6785043238459608,14.510563293006271,0.3872402557631116,13.219473779201508,120.66877431760415,-89.19570130482316,91.05244876800568,105.28677976876497,71.79111432419786
14.742340911179781,1.7377825557943318,1.6690966181340627,0.6904947960559626,14.73127974756062,0.38943237754715815,13.411750828614458,120.60028703562996,-93.31498720310628,93.49988665401088,107.0426339097321,72.8014159966262
14.962425416335464,1.7495980456417293,1.7023612849297933,0.7024265363450378,14.95131521904841,0.3909287342718429,13.61837761849165,120.52431988958578,-97.51184796541929,95.98996171295035,108.76343503966928,73.80937685520875
15.18084729788825,1.7612851069925843,1.7358450499596074,0.7144626742673008,15.169883555732667,0.3949254436192564,13.840179525548592,120.44035907824346,-101.7848051302135,98.5228051026376,110.44772081635892,74.81438114870687
15.394530809018761,1.7722223157923407,1.7695432180189528,0.7265635597681741,15.384366994258016,0.3983786929177883,14.078009540913627,120.34786643268733,-106.13231936097145,101.09844594895705,112.09408819489181,75.81571814679563
15.610176770016551,1.7838798802906168,1.8034488101839088,0.7383979986500204,15.59960265038535,0.3964248751508813,14.332747837528586,120.24645953793939,-110.55279322341084,103.71838187194754,113.70120523683727,76.81482768962081
15.82409245800227,1.7953327009372104,1.8375597973936237,0.7504099398946666,15.813603751827031,0.40131575569822336,14.605305149918422,120.13541956042391,-115.0445744022727,106.38122926035496,115.26782692782581,77.80908652670185
16.030927933752537,1.8052854444887938,1.8718720436445437,0.7627033989270335,16.021693092305213,0.40816814358860365,14.896615549456328,120.01436501884558,-119.6059596426785,109.08867183743763,116.79279715754092,78.80023524545356
16.243225620593876,1.816472863208547,1.9063773461384699,0.7748691210306895,16.23296923842281,0.4084735070850611,15.20764372125268,119.88247189087124,-124.2351986952126,111.83859101030531,118.27506791427732,79.78479548035111
16.453896017745137,1.827243101949101,1.941076266404707,0.7868789347685881,16.443580254446715,0.4080052422699375,15.53937486349605,119.7394641171752,-128.9304991438985,114.63371552723459,119.71369682252407,80.76596733313663
16.661852287128568,1.837378137969312,1.9759657175163738,0.7990760435255964,16.651886282954365,0.41305407211662903,15.892826948547736,119.58446990829123,-133.6900311242789,117.47165276083292,121.10786861553788,81.74007024218956
16.866627167910337,1.8468187461215875,2.0110411048517562,0.8113826393461799,16.857185631990433,0.41705070155907326,16.26903664553538,119.41697565075161,-138.5119330883026,120.35317975618625,122.4568865224719,82.70772721035043
17.06934374338016,1.8558613937536863,2.0462975039263256,0.8238109435440686,17.06023646518588,0.42118335901966947,16.669067265233025,119.23642237765407,-143.39431698806584,123.27868027276199,123.76018585823476,83.6690724993393
17.27451974945143,1.865552005789346,2.0817307727993466,0.8360709539296554,17.26480461563915,0.42053077280175777,17.09400729020126,119.04204675995103,-148.3352740779519,126.24686627644331,125.01733537204564,84.62212028251479
17.474977941717952,1.8743470656195906,2.117340216820594,0.848526260397657,17.46590142697096,0.425651401030307,17.544964907458052,118.83355140340304,-153.33288101293147,129.26025522165608,126.22803421132267,85.56980983964019
17.680251692887396,1.8843204751603264,2.153120703238528,0.860881871635745,17.670155960600823,0.42610264783548063,18.023078797617927,118.60979765327029,-158.38520555011928,132.3145599733629,127.39212094433606,86.50648448160345
17.8803479061462,1.8932707557909718,2.1890730102313682,0.8734832348339334,17.87089950731024,0.43210786093930603,18.529496811097488,118.37065939129553,-163.49031279981136,135.41357609308872,128.5095542743802,87.4367063584552
18.0786959878169,1.9019201916712876,2.225192146433983,0.8859213144780461,18.069541955832392,0.4315250404153586,19.065400230698287,118.11519098374694,-168.64627043157816,138.55455940113333,129.580429835245,88.35692364900315
18.27570774545893,1.9103372118248896,2.2614746609469876,0.8983212399167666,18.266694633755833,0.4326717168155269,19.6319826960098,117.84288393950662,-173.85115487873554,141.7381441044877,130.604958595708,89.26780526583723
18.468707563355565,1.9179424486843324,2.2979175266227685,0.910571873640654,18.460339377168566,0.43194900057157853,20.230460195802152,117.55320176610853,-179.10305646248162,144.9646109373884,131.58346927165985,90.16961572484452
18.667224335018545,1.9268525732576032,2.334516247443389,0.923047196997818,18.6576956580393,0.43741093404312525,20.862069455673918,117.24553878040253,-184.40008453465998,148.23361227282086,132.51639968901873,91.06189477927505
18.85840617166832,1.934403559197711,2.3712720212643035,0.935754986265817,18.8499260074459,0.4433247826999827,21.528065227903426,116.91941935347981,-189.74037238024175,151.54558350810694,133.40428702533245,91.94514705975767
19.05664525507018,1.9437497899281175,2.4081791685312055,0.9483135553236766,19.04677665606141,0.442778487029091,22.229722431860864,116.57418405948313,-195.12208155542612,154.89953531188357,134.24776059016585,92.81822512557494
19.252171551343054,1.9528984730365524,2.4452398564317264,0.960916357072451,19.24238076992333,0.44525677982259626,22.96833048784174,116.20912948439174,-200.543406188488,158.29411798346337,135.047529168427,93.67960723522305
19.43473202176392,1.9597239573101366,2.482451494259294,0.9736031444255646,19.427362584974617,0.4485199885413568,23.745191104942933,115.82385171313582,-206.0025763772428,161.72980382182766,135.80437094718218,94.52992178354626
19.62341604521498,1.9681911584708023,2.51980446127709,0.9862153117394612,19.61511848354712,0.4489870954059044,24.561624355148524,115.41804620922328,-211.49786124750972,165.20739496172004,136.51912733726203,95.37019198428253
19.809314584359527,1.9763258073490788,2.557299557782244,0.9985826883436338,19.801200531888753,0.44637684475310174,25.41896962793544,114.99102037276005,-217.0275718383491,168.7250765134483,137.19269373454154,96.19848729507959
19.990520518738776,1.983628239832383,2.5949342307285406,1.0112548120178733,19.983193373773247,0.45308402132429726,26.31857487699017,114.54250076716121,-222.59006363153458,172.28336017086235,137.8260044325143,97.01553710802067
20.171231427695602,1.990875068200672,2.6327039935276844,1.0239458746041017,20.163972212933004,0.455220734414013,27.261805155314505,114.07202195271046,-228.18373802304268,175.88135375846937,138.42002804018557,97.82052054087994
20.35395648283884,1.9985204098483385,2.6706068086787127,1.0368613212394535,20.34611934609711,0.46071211376513665,28.250036438927054,113.57934711612796,-233.80704418942332,179.51917410288274,138.97575574368238,98.61376122812923
20.538693563081324,2.0066022025423536,2.7086424257140607,1.0498592745957769,20.530149633530527,0.46394169618179115,29.284659274388105,113.06410659912356,-239.45847991481423,183.19590937637656,139.49419500492513,99.39447101073213
20.7270130882971,2.0155068180147717,2.7468110545305535,1.0628008753383897,20.717422331217676,0.4647118562604916,30.367073914501816,112.52616292901061,-245.13659251481295,186.91154981713228,139.97635952942073,100.16286887943474
20.904867727309465,2.0223898074062725,2.785113860911224,1.0757553163485134,20.896971385460347,0.4665903157895277,31.498693701811135,111.96560687188004,-250.83997901529074,190.66678716228216,140.42326405085623,100.91994480689407
21.07844523852691,2.0285882672802056,2.8235441567958333,1.0888474241281825,21.07155383331701,0.4705931577974522,32.680947901215404,111.38229497252328,-256.5672862306237,194.4607410951893,140.83591875247657,101.66500888581115
21.255291774403304,2.035697441049996,2.86209733603755,1.1016467301660218,21.24775805370882,0.4671304612127492,33.91527437558398,110.77622961731748,-262.31721080094576,198.29285179252628,141.21532048285007,102.39773056212076
21.429349928162992,2.042416565038942,2.9007736276253127,1.1148192327337534,21.422055711504072,0.4749724746398633,35.203120476566255,110.1473731035089,-268.088498480618,202.16200613138682,141.5624483358115,103.11720992268613
21.6063551469706,2.0498302351419473,2.939570525835734,1.1277980554982965,21.59832970565185,0.47338835739008045,36.54593995772302,109.4957217886851,-273.87994341924787,206.06690031894982,141.8782580923289,103.82236653397882
21.777007270604372,2.055957515088928,2.978488548484165,1.1410826732916295,21.769916309975088,0.4801548623063192,37.9451913475059,108.82197158423972,-279.69038731977344,210.0086278564102,142.16367835737765,104.51463618830562
21.946047828998417,2.0616760269545034,3.0175234053167515,1.1542356954000093,21.939276192802936,0.47959389772208644,39.402349275536835,108.12672643781484,-285.5187180414796,213.98725118300635,142.4196112509817,105.19438690095967
22.112408697605133,2.0667261687471994,3.056672786420677,1.167130568615392,22.10604684287682,0.4764076608797403,40.91889938246459,107.41054646796641,-291.3638685233891,218.00209949371202,142.64692769758403,105.86123755855603
22.279600703623146,2.071922389064715,3.095934117969591,1.1800121895680251,22.27296441467479,0.4773557785032577,42.49633438885212,106.67389575383942,-297.2248157672584,222.0516746823477,142.84646410308778,106.51397117814295
