coupler,coupler,$D^a [mM]$,$D^a [mM]$,$I_{islet}^a\ [pg/islet]$,$I_{islet}^a\ [pg/islet]$,$\gamma^b$,$\gamma^b$,$I_{cell}^b [pg/islet]$,$I_{cell}^b [pg/islet]$,$G^b [mM]$,$G^b [mM]$
2.696762793639209,1.0730048205154203,0.5037754067016067,0.07138288463970582,2.550041976326611,0.14254115003445467,11.004381649428979,120.98936851400654,2.6286944411403965,4.433763544074272,5.436810191196855,35.35623947105083
2.9783703784341924,0.9652048359494774,0.511117103495053,0.10009772421964772,2.9121485872310586,0.16355519167211868,11.003262909478508,120.99383234301747,2.9601402071421035,1.0901097151495744,7.672404761367943,35.559271280018116
3.2582498947158456,0.925651765543086,0.5204197984130587,0.1231157519115705,3.2166343008866534,0.17798547207733184,11.001946034608409,120.99839706585561,3.2307686645071954,0.7040158521967677,9.908377083367668,35.804394483644096
3.536624928470701,0.914542032935534,0.5311919989908347,0.14284023748131175,3.5027638534083962,0.18781584175961816,11.000640876591206,121.00291168221375,3.4880269215791486,0.701604029239991,12.144802290014923,36.09043493171281
3.8134227318223566,0.9190632056144185,0.543224253851804,0.1606551167994359,3.782269958872348,0.19705598390889806,10.999356287065893,121.0074657154298,3.741345381422434,0.7214022616172384,14.381679191952571,36.416693995845385
4.090087610296905,0.9329006689566036,0.5563916393293766,0.17670071093595813,4.059685270651244,0.20295654421494888,10.998093869537115,121.01204943519643,3.9937655712710693,0.7410714872935507,16.619004796026275,36.78211921263456
4.365623693098314,0.9523242320378469,0.5706060699449154,0.19179577810062395,4.335673536057584,0.21048736215166564,10.996855074772611,121.01664221105865,4.245099129213486,0.7594027947951654,18.856774465646595,37.18550056994279
4.6396248346427456,0.9749470219837941,0.5857930164638674,0.20615248886956183,4.610150376800448,0.21774732952044676,10.995641299523413,121.02123418855031,4.494983502256218,0.7768816087845625,21.094982461305335,37.62558103452396
4.910768695524894,0.9990674564296593,0.6018875453592045,0.2200956775690119,4.882165503804572,0.22596317149806042,10.994453885126859,121.02573571929271,4.742288358451333,0.7884652909408724,23.333622400881723,38.100547231981984
5.180565510760061,1.0239848039092672,0.6188294860330643,0.23342595883170433,5.152491582906805,0.2316382907215181,10.993293924606405,121.03027051088094,4.987995873845648,0.8071285807018292,25.572684592567384,38.609823723357714
5.450484990957193,1.0494847382358374,0.6365683139447356,0.24630940485420438,5.422389719518833,0.237311482901612,10.992162826121785,121.0348478799703,5.233478336187545,0.8265930016258884,27.81216323748231,39.15218516298037
5.718994796741754,1.0749883385175463,0.6550620373600395,0.2590643139010794,5.691166062955745,0.2449624518020821,10.991062024491839,121.03941804338757,5.47778438316891,0.8427135075470671,30.05205210018903,39.72594975908864
5.9859256179770455,1.1002263054613335,0.6742707886733115,0.2713023331346844,5.9584943482186645,0.2486457103658942,10.989992743590847,121.04403270711914,5.720588343334384,0.8621176871410682,32.29234300646931,40.33019607501974
6.251774207456037,1.1251552549532644,0.6941583573207026,0.28340672245058746,6.224624727270566,0.25482583726674535,10.988956278655678,121.04866931131278,5.962222557864152,0.8799897058937752,34.53302940260619,40.96343611315528
6.51723722810857,1.1498484244351632,0.7146918012731476,0.2953109480711551,6.490120286354795,0.2601174573855361,10.987953842035495,121.0531727506521,6.203310885059182,0.8862852332909841,36.774103454779834,41.62295759904806
6.781154379015788,1.173973071852034,0.7358426831633551,0.30710671187653693,6.754338015569374,0.2658244854686905,10.986986508360133,121.05770877678385,6.443049917696044,0.9040523363735781,39.01555118104443,42.30896426170457
7.044685694621876,1.1977520637776833,0.7575833810988115,0.31894650885670406,7.017897311365232,0.2728459171065301,10.986055705230683,121.06224250386447,6.68220712558832,0.9195209266900038,41.257364550139755,43.01987936752437
7.305347939953208,1.2205834039951482,0.7798897417960688,0.33049598876370945,7.279245997080579,0.27610387221298754,10.985162666998804,121.06678119872531,6.918949482613243,0.9353511865025252,43.49953362438828,43.7545624567326
7.565966548398137,1.243166220687647,0.8027366957685445,0.3420579641068439,7.539896396221593,0.28194599878625953,10.984308369690552,121.07130752400484,7.155170822050422,0.9496147347326742,45.74204892339185,44.51165576809865
7.825490231625736,1.2652818537624766,0.8261035834730137,0.35342907593151024,7.79956657695584,0.28546970015880035,10.983494037413038,121.07587512246339,7.390408954699524,0.9680605637991341,47.984899492934346,45.29061885014149
8.08407033723779,1.2870018275935569,0.8499710223695729,0.36503724039391344,8.058278060983866,0.29348898399618395,10.98272092291154,121.08039532541618,7.624692624318413,0.9793085278599886,50.22807613061741,46.08936910218755
8.341547180898488,1.308319421450111,0.8743205382488668,0.37618787779994883,8.315925769740716,0.2935533043764778,10.981990013620816,121.08498198088523,7.85789989947807,0.9996314939267718,52.47156604658812,46.90818836701601
8.59831246198155,1.329359886602703,0.8991355062171351,0.38775477754526694,8.57275243033655,0.3030962012692958,10.981302636209875,121.0896373011464,8.090319876326248,1.0205295208570042,54.71536034345627,47.74613868812035
8.85223279776983,1.3496112475087383,0.9243997040903196,0.39904188847052374,8.827337794238701,0.30497320765879876,10.98065995844081,121.0942499719509,8.320303737651557,1.0319153516858734,56.95944975037128,48.600917066445156
9.10254921275191,1.3688979598849857,0.9500965650076978,0.41043060162313827,9.078724530292675,0.3106050461694379,10.980062560294755,121.09879795976872,8.546914619277231,1.0406889193635411,59.2038210676983,49.47132629789512
9.352973761968315,1.3881868715582737,0.9762083500972949,0.4218294042609249,9.329224104993045,0.31529158462407425,10.97951095260214,121.10346927535856,8.772934910142794,1.0657183477740215,61.448460401035845,50.35892721890018
9.601719303289428,1.4070611596144358,1.0027223639481235,0.4332813238138197,9.578279107343405,0.3203257387787024,10.979006647714414,121.10806824699105,8.997491501853801,1.0739957601329897,63.69335974752903,51.26035637763654
9.849473494337872,1.4257068704800762,1.0296256923757028,0.44455572222133516,9.826203795848414,0.3222649779121939,10.978550134110264,121.11264247412421,9.22095995536074,1.085654194843224,65.93850382510573,52.17546558707066
10.09459899761714,1.4437130116171295,1.056906787242042,0.4559892767795811,10.071946405339986,0.32816742533497273,10.978142466046847,121.11728842295354,9.442105657421052,1.1061995695065032,68.18387883156538,53.104842073923194
10.338946440955624,1.461551450461581,1.084552830841858,0.4675077910594938,10.316486997529864,0.33338928416016694,10.977784542832524,121.12193660525058,9.66216229996644,1.1206209747056257,70.42947452422231,54.04684479030968
10.580595165723935,1.478743867325364,1.11255333077861,0.47910425770966736,10.558775257086381,0.33839508646480254,10.977477129898034,121.12654316752679,9.87984018761199,1.1305916191667502,72.67527751252055,55.00020301025043
10.823199713602662,1.4961987016118303,1.1408968355099205,0.4907496893268365,10.801054359646514,0.34291117975015173,10.977220704662614,121.13113644301097,10.097805127734318,1.1428529191290067,74.92127296514809,55.964700728285756
11.061665181070566,1.5126087507838248,1.1695755672699306,0.5023992722786118,11.040430929046124,0.34671423088850145,10.977016531745903,121.1357417919604,10.312514488003217,1.157598115840962,77.16744621377438,56.940123322871244
11.299038182245567,1.5286726979982375,1.198578228795668,0.5138471132653739,11.278169656405225,0.3474717590313704,10.976865014992654,121.14030833757009,10.525697166332975,1.1673424429054606,79.41378412768245,57.925176187382036
11.5374642603565,1.5448742504948336,1.2278958429815248,0.525613019051289,11.516151885734871,0.35503342221358464,10.976766736712307,121.14495263481658,10.73941548843868,1.1881612207286898,81.66027112863958,58.92107168497695
11.77317876345478,1.5602368837247287,1.2575218750571366,0.53736533299456,11.75230696494691,0.35862534271558755,10.976723231957294,121.14959992708249,10.951070330338553,1.202152265217684,83.90689512901008,59.92620359939192
12.008710175286978,1.5753550104380987,1.2874478713201825,0.5492048973769359,11.987783632939681,0.3631924175906217,10.976734864525497,121.15418888398058,11.162164762150496,1.2096543343664574,86.15364166349173,60.93917926966381
12.246804834110662,1.5909750887268364,1.317666986520635,0.5605423847382929,12.224849059944972,0.3593519424334034,10.976802374352701,121.15875031367015,11.375196600682102,1.2198349523007521,88.40049343649298,61.96003340654614
12.48005118733272,1.6054012895356322,1.3481757396657486,0.5723183061583906,12.458995220949873,0.3681077224775741,10.976927425828762,121.1633577696913,11.584736303891987,1.2376012486711818,90.64743343181908,62.98949351217945
12.710622461512685,1.619259742604637,1.3789646516961511,0.5841204010643071,12.690391255076975,0.37207685783443123,10.97711036016699,121.16804632379298,11.791436713421717,1.2591282185534762,92.89444834180176,64.02772172677854
12.944774307310581,1.6341596644269374,1.4100254678633064,0.5958141746374496,12.923466828651726,0.3735751393936883,10.977351546869613,121.1726355131909,12.000433009001426,1.2622683823149834,95.14152580592781,65.07150982663688
13.172971321735531,1.6478878218726432,1.4413552764162887,0.6076515786410852,13.15287611540407,0.3784862951081574,10.977652115398087,121.17721162014705,12.20512402721215,1.2735094554132793,97.3886454468593,66.12188222467896
13.397836786229163,1.660998394629116,1.4729450333688874,0.6192766755907532,13.37885175878182,0.37838342398861646,10.978012099629268,121.18192099899656,12.406288335449062,1.3001203734394822,99.63579149730504,67.1808552902249
13.621111724991351,1.6738095242791684,1.5047866069653537,0.6313675571844588,13.602682267781347,0.3877656879874447,10.978431929484941,121.18654146177862,12.605474599869922,1.3040970834023011,101.88295327499509,68.24453772520505
13.849976819008589,1.6879210419218391,1.5368731513153762,0.6432037983889972,13.829780944157392,0.38734528119600065,10.97891128831543,121.1912441588418,12.808737204410136,1.3249937257443807,104.13011150807142,69.31541813356067
14.078546037431806,1.7018490925060212,1.5692044602765236,0.6549079402148494,14.057651391718537,0.3877581845830178,10.979452896863222,121.19594333654457,13.012578351655975,1.3377140207615237,106.37725152820349,70.3918168856078
14.303984489757568,1.7148647064564704,1.601777327421587,0.6666704111927487,14.283560340758413,0.3910610586386959,10.980057665146887,121.2005494233096,13.214030716801062,1.3405434932541669,108.62435576319695,71.47200183083854
14.520847270265222,1.7257810358967813,1.634585751395207,0.6785711464100478,14.502876460086554,0.39580860136208196,10.98072552215308,121.20524832991791,13.408145044231787,1.3627159893512084,110.87140396609902,72.55880389407905
14.742340911179781,1.7377825557943318,1.667619276617188,0.6904598676476389,14.723455007653683,0.3983117840953235,10.981455711647868,121.2099822099315,13.604496901389211,1.3792265848450735,113.11838408745825,73.65102406488579
14.962425416335464,1.7495980456417293,1.7008758515003137,0.7025683666291632,14.943424608092755,0.40416392669567813,10.982249681721441,121.214682946725,13.800169493770227,1.3882639239792791,115.36527945101261,74.74730082019734
15.18084729788825,1.7612851069925843,1.734351466933731,0.7146605545733261,15.162046506535262,0.40671269181359115,10.983107887790538,121.21939443591306,13.994376829825342,1.401693649982039,117.61207135953009,75.84816434503956
15.394530809018761,1.7722223157923407,1.7680416937801056,0.7267465052257945,15.376946039032191,0.40906698871588854,10.984030900872312,121.22406929481475,14.184501283569261,1.410061823602072,119.85874280706048,76.9526163015327
15.610176770016551,1.7838798802906168,1.8019398851320148,0.738879816134046,15.592101404909045,0.41216101159239527,10.985018073348328,121.22882060645101,14.375380110926926,1.4304526619296032,122.10527566447854,78.06238870465641
15.82409245800227,1.7953327009372104,1.8360433766501956,0.7509189828936287,15.80612126365304,0.41309392657201865,10.986070936662145,121.23359253000905,14.565026771044359,1.4452498340250859,124.35165468417108,79.17634556676612
16.030927933752537,1.8052854444887938,1.8703483450226486,0.7632372965609069,16.014843214768916,0.4196310529884748,10.987189747742377,121.23828562823078,14.748764108167961,1.448802036397636,126.59786279499531,80.29261641421452
16.243225620593876,1.816472863208547,1.9048470545676537,0.7754280040249392,16.225798421073705,0.42026609241895946,10.98837290413212,121.2430417988064,14.935690810671076,1.4673886825601234,128.84388046897948,81.41348433462666
16.453896017745137,1.827243101949101,1.939539170532953,0.7875776865287888,16.43628350365907,0.42169264103025283,10.989622865570709,121.24775423908166,15.121955162612721,1.4748077858303774,131.08969137445092,82.5369495710064
16.661852287128568,1.837378137969312,1.9744217516272329,0.7999899100864809,16.644726715050638,0.42797723237914986,10.990939843002707,121.25255332334083,15.305917507270351,1.4962994170421282,133.33527558669448,83.6651253656492
16.866627167910337,1.8468187461215875,2.00949044857407,0.8120451308931984,16.850329568143934,0.4248376469371315,10.99232432374265,121.25732139109165,15.486876267008483,1.505141320857075,135.58061837777495,84.79582341485327
17.06934374338016,1.8558613937536863,2.044740665180143,0.8243322874152988,17.053638513665646,0.430141695287857,10.993775561451912,121.26210475302592,15.66558972443454,1.5185608879598782,137.82570079527795,85.92972267320835
17.27451974945143,1.865552005789346,2.0801680228323676,0.8368347629137035,17.257980149704963,0.43594652290228547,10.99529366265051,121.266848426892,15.845823897048831,1.5258814126006692,140.07050561718643,87.06573680665677
17.474977941717952,1.8743470656195906,2.1157712962594815,0.8490421134288961,17.459328437689692,0.43362474571833526,10.996879750746302,121.2716417970878,16.02259033615701,1.5431057120452574,142.31501250341535,88.2053164095387
17.680251692887396,1.8843204751603264,2.1515460538794287,0.8612983678311158,17.663148733321577,0.4359953254176601,10.99853363528382,121.27644556426367,16.202518234960735,1.5561740747107342,144.55920549854636,89.34765241251479
17.8803479061462,1.8932707557909718,2.1874922969727777,0.8737390102195733,17.864085665438324,0.4410233804781507,11.00025713618379,121.28121573777007,16.378939083777368,1.5641579459371329,146.803065398708,90.49185947038393
18.0786959878169,1.9019201916712876,2.2236056174733676,0.8862103630873213,18.062933261040598,0.44378478190763443,11.002049471018836,121.28597170221141,16.55326288403012,1.5740138035605367,149.04657283611596,91.63818178397062
18.27570774545893,1.9103372118248896,2.2598824831075035,0.8985419593195342,18.260217981413007,0.4435159154242371,11.00391062500421,121.29078489267694,16.726101245498285,1.5920701893421987,151.28970886394382,92.78778800137373
18.468707563355565,1.9179424486843324,2.2963198973448016,0.9111181408197907,18.454224789515138,0.44921918668727656,11.005841045058332,121.29565230871121,16.895436158403754,1.6100746668045218,153.5324571300298,93.94052365474512
18.667224335018545,1.9268525732576032,2.332913391815964,0.9235197289845548,18.65110961534083,0.44856936346540666,11.007840033620596,121.30043011594618,17.068487285403535,1.6114506255977683,155.77480151876807,95.09373348344606
18.85840617166832,1.934403559197711,2.369663738005329,0.9361429082025697,18.843722760211676,0.45386456753770965,11.009909156826325,121.30525130635284,17.236417199950665,1.6275743076769396,158.0167189706117,96.24971424294137
19.05664525507018,1.9437497899281175,2.406565824698191,0.9486124246576594,19.039994014892727,0.45347514025221636,11.012047590338625,121.310121641261,17.40897235297598,1.644811854579015,160.25819320231676,97.40848238713343
19.252171551343054,1.9528984730365524,2.443621053767856,0.9613165424656858,19.235463192220777,0.45901063885843624,11.014257977716625,121.31492199722535,17.580286141950637,1.6484330011447894,162.49920574389398,98.56781752918361
19.43473202176392,1.9597239573101366,2.480827129271347,0.9737520560306627,19.421615259256214,0.45672878524882077,11.016539976000786,121.31981553877064,17.74098298023455,1.670403335236884,164.73973477259278,99.73058264904046
19.62341604521498,1.9681911584708023,2.518175578559749,0.9863735702960224,19.609258078504354,0.4611669177845227,11.018890523118898,121.32467438309136,17.904459452955052,1.6779640533031484,166.97976697795093,100.89439682073241
19.809314584359527,1.9763258073490788,2.555666045693215,0.9989462382388594,19.795397971291095,0.46231686280912543,11.021310854470357,121.32957714836218,18.066267754184082,1.6941718901858744,169.21928172558546,102.06061144461368
19.990520518738776,1.983628239832383,2.5932961148791946,1.0116656028271183,19.977801726665348,0.46642267056984393,11.023801233968697,121.33453790450012,18.22399280942045,1.7123199666065543,171.45826196856797,103.22940886488979
20.171231427695602,1.990875068200672,2.631061662978027,1.0244475984015837,20.15873782802373,0.4693636803476206,11.026360597577877,121.33940972266433,18.380509827518836,1.7133224115216963,173.6966918297112,104.39806323801372
20.35395648283884,1.9985204098483385,2.66896040312713,1.0370381609527297,20.340643235016614,0.46789583372182664,11.028988314094022,121.34433887128054,18.53840131033212,1.7306781977648413,175.93454978987575,105.56917556467282
20.538693563081324,2.0066022025423536,2.7069919241475873,1.0498732490923173,20.524247461464256,0.47337101444540214,11.031686247559264,121.34922468214546,18.69818227365613,1.7369400280759553,178.17181892693043,106.74085336902202
20.7270130882971,2.0155068180147717,2.7451561494963244,1.0628573252345666,20.710868848487735,0.47790716137370115,11.034455379587598,121.35419540995059,18.86121217161417,1.7578418799070037,180.40847813151777,107.91537559181877
20.904867727309465,2.0223898074062725,2.783454066084232,1.0757134156556667,20.891069756355137,0.47773079643924937,11.0372983928537,121.3591524324364,19.01652523712255,1.7678593710303976,182.64451027661562,109.09088126059964
21.07844523852691,2.0285882672802056,2.821880010596942,1.0885219836228295,21.066350176464766,0.47837793002463996,11.04021197266411,121.36414558746668,19.166878669289872,1.7830901062294817,184.8798970542848,110.2682314663582
21.255291774403304,2.035697441049996,2.8604294170509093,1.1012684626270786,21.242442513350397,0.4787712657897087,11.043194649508223,121.36909444336425,19.318860976025462,1.7889583063320589,187.1146220676601,111.44590670711325
21.429349928162992,2.042416565038942,2.8991018311935477,1.1142789806492186,21.416826315689832,0.4847182964576879,11.04624731792137,121.37393330440818,19.468944100430235,1.7866701902052826,189.34866463951766,112.62266562530596
21.6063551469706,2.0498302351419473,2.937894971051719,1.1272136097574657,21.59276045905426,0.48537240249270125,11.049369299318641,121.37898510567095,19.62101095658727,1.822176350615389,191.58200252242386,113.80438289097071
21.777007270604372,2.055957515088928,2.976809001469519,1.1402345325751544,21.76471232715994,0.4883243149606969,11.052563684643246,121.38402293744366,19.768398195737973,1.8324656488076192,193.81462420336902,114.98682922647659
21.946047828998417,2.0616760269545034,3.0158402007073164,1.1531553906799876,21.93434131378308,0.4882452407526742,11.055827740696259,121.38904082608089,19.913566475035623,1.8409372761013543,196.0465110577643,116.16985696332073
22.112408697605133,2.0667261687471994,3.054986128991004,1.1660256108585971,22.101397465914488,0.48868421254970285,11.05916085280478,121.39416037027785,20.056153581710532,1.8635952722934874,198.27764436975121,117.35565977626999
22.279600703623146,2.071922389064715,3.094244173320476,1.1791100848610787,22.26826344570145,0.4937170001164663,11.062562920153141,121.39917551741081,20.198895911918953,1.8625124556120594,200.50801002420485,118.54040152927
