coupler,coupler,$D^a [mM]$,$D^a [mM]$,$I_{islet}^a\ [pg/islet]$,$I_{islet}^a\ [pg/islet]$,$\gamma^b$,$\gamma^b$,$I_{cell}^b [pg/islet]$,$I_{cell}^b [pg/islet]$,$G^b [mM]$,$G^b [mM]$
2.696762793639209,1.0730048205154203,0.5037754067016067,0.0712611387135824,2.501135037164204,0.14239563045437173,11.004381649428979,120.9893890043089,2.35642103353166,22.060570879793385,5.436810191196855,35.356259869009854
2.9783703784341924,0.9652048359494774,0.5108302120206645,0.10031141367606189,2.870511877001263,0.1672929920943695,11.008815081091598,120.99395987355257,2.614946113259066,22.239868489038635,7.672480765089858,35.559836853244406
3.2582498947158456,0.925651765543086,0.5199184141965816,0.12340616976112591,3.186111048446037,0.18305466912918633,11.01335854397621,120.998396323888,2.7756249070516787,22.52994480234174,9.907026004861109,35.80527174865597
3.536624928470701,0.914542032935534,0.5305480205715867,0.14262950358576065,3.479273284319788,0.1915795745909088,11.018067179014906,121.00288284042762,2.8385062334418762,22.924995116825688,12.140438818372786,36.09209260227466
3.8134227318223566,0.9190632056144185,0.5424797291925643,0.1600582510072741,3.7624968184391037,0.2011853166080119,11.02299413154833,121.0073156431116,2.8036390083143488,23.418156756243487,14.372703715460375,36.41900296862864
4.090087610296905,0.9329006689566036,0.5555686260340735,0.17612237306850953,4.041650350787677,0.2096317720011057,11.028191241668537,121.011756032862,2.671072620229097,24.002437333594187,16.603786994470283,36.785098581131784
4.365623693098314,0.9523242320378469,0.5697158843104262,0.19122908841183167,4.318485518335365,0.2177664792086077,11.033710061339661,121.01629022557054,2.440857732843142,24.67081910674363,18.83364312374033,37.18960478871869
4.6396248346427456,0.9749470219837941,0.5848427871678723,0.20539292356840955,4.593460441217758,0.2240447265325994,11.039602742297575,121.02074027621842,2.1130468029004987,25.416178515906015,21.062215781072155,37.63035502743329
4.910768695524894,0.9990674564296593,0.6008826530742226,0.21923005455797506,4.86596587090753,0.23283357722179765,11.045922761200927,121.0252107717727,1.6876945512194652,26.23212698971463,23.289428235264495,38.106523484542606
5.180565510760061,1.0239848039092672,0.6177744138694834,0.23229881679518086,5.136665086844005,0.237693607710818,11.05272598261945,121.02961670893274,1.1648588495881995,27.11261148275651,25.515193271217868,38.61615351623853
5.450484990957193,1.0494847382358374,0.6354669157735771,0.24504341536164945,5.406705881818198,0.24426987632690972,11.060071457060985,121.03419219094279,0.5446011712047039,28.052375985235003,27.73940577264875,39.15940832422264
5.718994796741754,1.0749883385175463,0.6539169266470708,0.2576640685685109,5.675628620549105,0.25214699761056386,11.068022422259673,121.03873137790329,-0.1730126397615095,29.046520924985952,29.96195350261405,39.733421133210264
5.9859256179770455,1.1002263054613335,0.6730844046396669,0.2699681890297654,5.943148407852277,0.25802408416501277,11.076647033682093,121.04329436779193,-0.98791207105387,30.091477970371287,32.18270021351054,40.337210043911384
6.251774207456037,1.1251552549532644,0.6929328236001311,0.2821708494002203,6.20944977470208,0.2649631445191694,11.086019753129221,121.04785634409357,-1.9000209121149965,31.185628784424424,34.401494077872485,40.969180494148844
6.51723722810857,1.1498484244351632,0.7134291454713093,0.2941655324329862,6.475025007734075,0.2706454038221996,11.09622329834383,121.05248726917355,-2.9092565939354245,32.325966055921626,36.618163106031716,41.62861944273903
6.781154379015788,1.173973071852034,0.7345445937389741,0.30606124332631846,6.73937521292828,0.27676132156419375,11.107348265941255,121.05717094439063,-4.015529343625531,33.50994245884006,38.832516533788294,42.31415563700829
7.044685694621876,1.1977520637776833,0.756251519153011,0.3177284944435143,7.002997219795361,0.2812633215548712,11.11949397972785,121.0619131832804,-5.218741387943737,34.735467155385436,41.0443398989737,43.024707831943886
7.305347939953208,1.2205834039951482,0.7785257368523162,0.32935903714994735,7.264600129332393,0.28711342304871396,11.13276940479409,121.06663697145672,-6.518785952939652,36.00073008642255,43.25339380046353,43.758463704197766
7.565966548398137,1.243166220687647,0.8013420321804006,0.3408712929602079,7.525363168912008,0.2920247518233514,11.147293915506452,121.07130383290695,-7.915546207455918,37.30429433057517,45.45940875727683,44.51407427849379
7.825490231625736,1.2652818537624766,0.8246796283929143,0.3525878754943205,7.785127546172589,0.3000695634966871,11.163198189926334,121.07586898149962,-9.408893992193043,38.645011701589176,47.662084312643856,45.290235684647755
8.08407033723779,1.2870018275935569,0.8485186200414319,0.36402082905884964,8.043920876923949,0.3030693464375385,11.180625058943406,121.08033828737774,-10.998688502935693,40.02213315975825,49.86108635691926,46.08633988951664
8.341547180898488,1.308319421450111,0.8728411092888564,0.3753993301995499,8.301658536540344,0.3075101993801348,11.199730479740538,121.08469266697202,-12.684774863999337,41.43513171623039,52.056046448647976,46.90167214614222
8.59831246198155,1.329359886602703,0.8976297842164058,0.3868669232021631,8.55854196450673,0.31365896009206534,11.220684400643222,121.08872121557583,-14.466982683399692,42.88312103902464,54.24655825458467,47.733430183035445
8.85223279776983,1.3496112475087383,0.922868790483335,0.398201098288203,8.813371951924637,0.3173302253392948,11.243671047501266,121.09257239561292,-16.345124440733343,44.36655096751022,56.432168148458004,48.583217177853854
9.10254921275191,1.3688979598849857,0.9485415056406055,0.4098415779008927,9.065213580615819,0.32567120659756965,11.268890925683081,121.0959964834716,-18.318993479479104,45.884714095826844,58.612385312095284,49.44803521216533
9.352973761968315,1.3881868715582737,0.9746304056316148,0.42120026756148177,9.315920424414799,0.32758484978061453,11.296560332877561,121.09888819260733,-20.38836243120022,47.437532567959714,60.78666496835649,50.32679236474474
9.601719303289428,1.4070611596144358,1.0011226447240915,0.4325468918572699,9.565161703852937,0.3315075415073256,11.326912649092264,121.10115507659138,-22.552980934502557,49.02513051785075,62.95441105030477,51.21874872187354
9.849473494337872,1.4257068704800762,1.0280051202280447,0.4438446184410302,9.813217925140634,0.33514655197252885,11.360199261573143,121.10277597539103,-24.812573440140113,50.648126215285735,65.114974334836,52.124291469264136
10.09459899761714,1.4437130116171295,1.0552660120010842,0.4552637977930341,10.059219046495855,0.3407703028312286,11.396690835710615,121.10353462727461,-27.166836955584586,52.30636243201806,67.26765265036374,53.04149252631959
10.338946440955624,1.461551450461581,1.0828927440743428,0.46690228285770036,10.303927622968331,0.3479039334320848,11.436677115387283,121.10352036040156,-29.61543881241232,54.00138648667222,69.41168203577399,53.97266120134593
10.580595165723935,1.478743867325364,1.1108745449164417,0.4784825746980778,10.546496468828991,0.3516981548330568,11.480469715432264,121.10227499341761,-32.158014027401805,55.73195682948286,71.5462457081303,54.91304733641559
10.823199713602662,1.4961987016118303,1.139200236153556,0.48994099925689827,10.788779496913776,0.3539785255276618,11.528399318340234,121.0996478264154,-34.79416307294741,57.49857392824069,73.67045350652188,55.86222830646515
11.061665181070566,1.5126087507838248,1.1678616663557477,0.501359986181026,11.028461448149756,0.35695467628604355,11.580818447633646,121.09541160836504,-37.523448759224266,59.30140291560032,75.78335221949965,56.81897888714846
11.299038182245567,1.5286726979982375,1.1968478526978288,0.5129701641224095,11.266444323351607,0.36299794814264463,11.63810168101918,121.08952879994669,-40.34539354778826,61.14192548010089,77.88392270356417,57.78491526522414
11.5374642603565,1.5448742504948336,1.226149446418276,0.5245457596286881,11.504376459633932,0.36648829181388237,11.700648140278645,121.08173031460167,-43.25947671663016,63.020297607880465,79.97108664736152,58.758710201468126
11.77317876345478,1.5602368837247287,1.2557598923449405,0.53594786370998,11.740658442024142,0.3675930959410303,11.768880328629166,121.07161577863972,-46.26513193314895,64.93587026551005,82.04369929805398,59.73746573816525
12.008710175286978,1.5753550104380987,1.2856708788021933,0.5478214743451819,11.976167645072564,0.37698658951452346,11.843243402428925,121.05915752410274,-49.36174438614398,66.89069266147531,84.10054708272219,60.72372956446444
12.246804834110662,1.5909750887268364,1.3158751359733287,0.559444044391062,12.212903141742572,0.37790357314446343,11.92420985805802,121.0439557755522,-52.54864786937833,68.88431539911495,86.14036281872541,61.71509776985347
12.48005118733272,1.6054012895356322,1.3463687586772721,0.5710562668798345,12.44721748190932,0.38064276656015694,12.012276250170544,121.02580723161046,-55.82512257248163,70.91784464096618,88.16181645449251,62.71218323689113
12.710622461512685,1.619259742604637,1.3771432414650917,0.5826787599134564,12.67895577615127,0.3838698593174876,12.107966175768524,121.00428968617409,-59.19039238244295,72.99086073612457,90.16352609824389,63.712789219521824
12.944774307310581,1.6341596644269374,1.408190321206348,0.5944514882884457,12.91180954547599,0.3890683678948217,12.21182819828391,120.9791599189076,-62.64362274669111,75.10444886380049,92.14405617304146,64.71750049521553
13.172971321735531,1.6478878218726432,1.4395062662661076,0.6063549133163901,13.141534339636564,0.3943298534677536,12.324438817799091,120.94993883880348,-66.18391840066761,77.2579541358592,94.10192985180765,65.72386327663736
13.397836786229163,1.660998394629116,1.4710827475064434,0.6180418541546818,13.368006381206214,0.3946325913717757,12.446399775799364,120.91631978461768,-69.81032168958336,79.45223368490677,96.03562880307436,66.73211739608655
13.621111724991351,1.6738095242791684,1.502911814575782,0.6297605398991291,13.592220761347562,0.39752166811044404,12.578341047861613,120.87793552283073,-73.52181081473827,81.68778472128548,97.94360753986984,67.74190780130526
13.849976819008589,1.6879210419218391,1.5349866796459537,0.6414288338370752,13.81888412265107,0.39957739924472224,12.720920524327084,120.83440654603233,-77.31729882210493,83.9651360275958,99.82430064491928,68.75296213135597
14.078546037431806,1.7018490925060212,1.5673059644177556,0.6533398673641093,14.046347544994205,0.40573831353934947,12.874824344879016,120.78534558556906,-81.19563275482506,86.28488411400649,101.67613254766911,69.76514503236912
14.303984489757568,1.7148647064564704,1.5998664062353782,0.6654249444369001,14.272250675596297,0.41160291582877345,13.040767260361463,120.73026719230108,-85.15559338312596,88.64691361146282,103.4975283369422,70.77722858822597
14.520847270265222,1.7257810358967813,1.6326625244109891,0.6776241160721208,14.492382464464754,0.4165552817085165,13.219491326250136,120.66869164795483,-89.19589531701058,91.0512873174957,105.28692237846553,71.78832987341804
14.742340911179781,1.7377825557943318,1.6656847574049607,0.6897222924254487,14.712982449214906,0.4181612588997834,13.41176626761444,120.60002129291156,-93.31518752500415,93.4971676706611,107.04277106001973,72.79626006382334
14.962425416335464,1.7495980456417293,1.6989302624715492,0.7015687449953215,14.932922483421862,0.4169226383693021,13.61838743952103,120.5241445468367,-97.51205438096076,95.98809831381452,108.76356217451394,73.80547687524417
15.18084729788825,1.7612851069925843,1.7323951389989816,0.7135900467118031,15.15159920277074,0.42143813552298903,13.840185559820384,120.44020978216307,-101.78501713462174,98.5212002112602,110.44784159399569,74.81087587680801
15.394530809018761,1.7722223157923407,1.7660747852060013,0.7258453324847881,15.36692603584379,0.4277603415624181,14.07801231998019,120.34774257444266,-106.13253666460514,101.09707771590776,112.0942040849477,75.81258930903724
15.610176770016551,1.7838798802906168,1.79996285244124,0.7376633900377998,15.582088936120272,0.4243251651232456,14.332747866166756,120.24630817811841,-110.55301562137902,103.71677279513172,113.7013175226748,76.81140505527092
15.82409245800227,1.7953327009372104,1.8340565403341316,0.7497813748907114,15.796146450564265,0.4302728480721834,14.605301783885807,120.13539829718705,-115.04480173066258,106.3807514259574,115.26793546229601,77.80731042765063
16.030927933752537,1.8052854444887938,1.8683517499011941,0.7622160741849847,16.005512384232134,0.4380000757620955,14.896611597854644,120.01429384331256,-119.60619169659913,109.08772456098157,116.7929057199508,78.79788995121616
16.243225620593876,1.816472863208547,1.902841390867252,0.7744304855801332,16.216277800500393,0.43793162920623785,15.207637964747846,119.88257783146025,-124.23543548583984,111.83913935316104,118.27517534606159,79.78457519901634
16.453896017745137,1.827243101949101,1.9375244061811827,0.7863277936057297,16.426625256426632,0.435014362031754,15.539371270453557,119.73956010502538,-128.93074064701796,114.63411009560937,119.71380753070116,80.76564254099576
16.661852287128568,1.837378137969312,1.9723979876725934,0.7985994691727039,16.63517564861104,0.44214012951381126,15.8928251741454,119.58451321943342,-133.6902774758637,117.47153845495072,121.10798198916018,81.73916342080811
16.866627167910337,1.8468187461215875,2.0074578726198524,0.8111078819454993,16.841097353957593,0.44879159766881277,16.269035331672058,119.41711871236534,-138.5121844112873,120.35384705961302,122.45700110681355,82.70793730075512
17.06934374338016,1.8558613937536863,2.042699443991296,0.8234093582495224,17.044731550384313,0.4485909347593705,16.66906869527884,119.2364959581194,-143.39457328431308,123.27870537209085,123.76030367985368,83.66854224989268
17.27451974945143,1.865552005789346,2.078118668461684,0.8355294507118676,17.248925210442394,0.4475507597835472,17.094009675551206,119.04221729268149,-148.33553553372622,126.24762510002175,125.01745462976396,84.62261725327978
17.474977941717952,1.8743470656195906,2.1137139311176725,0.8479553538781491,17.4505108515732,0.45389167198265035,17.544970505172387,118.83346893086386,-153.33314772881567,129.25892593984082,126.22815667651594,85.56773864949737
17.680251692887396,1.8843204751603264,2.149480786640197,0.8601732259627487,17.6539417472668,0.45343589932817036,18.023081273771822,118.6098477499195,-158.38547767698765,132.31425145161157,127.3922413866967,86.50575545565407
17.8803479061462,1.8932707557909718,2.185418956039939,0.8727037764153073,17.855003169737756,0.45998493221704745,18.52949934382923,118.37053875552772,-163.49059022590518,135.41191088627392,128.509675482288,87.43436137189646
18.0786959878169,1.9019201916712876,2.2215243651880883,0.8851527330416024,18.05406715394929,0.46151944279712137,19.06539847049862,118.11506683831338,-168.64655314013362,138.55285441551212,129.58054877445102,88.35458463966803
18.27570774545893,1.9103372118248896,2.2577936110901646,0.8975449775936376,18.25152943050489,0.46257941963859744,19.631976439617574,117.84276215694587,-173.8514428269118,141.73644038133992,130.60507565364242,89.26552648790161
18.468707563355565,1.9179424486843324,2.294223608216271,0.9101855830925787,18.445942990016192,0.468324808155091,20.230449373135343,117.55313103738304,-179.10334950871766,144.96325421874403,131.5835848953575,90.16781866787593
18.667224335018545,1.9268525732576032,2.3308100884896703,0.9227057295442901,18.64244658080861,0.4690156282995346,20.86205520061776,117.24547052896004,-184.40038259327412,148.23224196100006,132.51651503145695,91.06015201945256
18.85840617166832,1.934403559197711,2.367553169373423,0.9352661861986996,18.835384423844516,0.4714181246005789,21.528047438012436,116.91940768752106,-189.74067535996437,151.54456643511986,133.40440234169364,91.94389485499728
19.05664525507018,1.9437497899281175,2.4044483765610494,0.9478440236394312,19.031129603739828,0.47368831610085377,22.229702333221212,116.57422387378446,-195.12238949537277,154.8988169570114,134.24787688441575,92.81740156192109
19.252171551343054,1.9528984730365524,2.4414963416638784,0.960627194655884,19.226369386073202,0.47895080167347615,22.968309166142717,116.2092737158758,-200.54371917806566,158.29402196092536,135.047647241503,93.6795890584375
19.43473202176392,1.9597239573101366,2.478695054538548,0.9731633232545427,19.41362695908174,0.4775042557500395,23.745170917129144,115.82411055352502,-206.00289440900087,161.73035942812967,135.80449204333127,94.53074280821875
19.62341604521498,1.9681911584708023,2.516037043707911,0.9857643524629094,19.60136500420049,0.47981879887238654,24.561607871670276,115.41835723226994,-211.49818454682827,165.2081881538082,136.5192527063191,95.37137747857749
19.809314584359527,1.9763258073490788,2.553521224996075,0.9983932796469149,19.78762343386188,0.48214927513127004,25.41895789420232,114.99126329100476,-217.02790056169033,168.72538888185784,137.1928236298263,96.19921902659276
19.990520518738776,1.983628239832383,2.591145135636907,1.0112930018588993,19.970473929308355,0.48837592512372763,26.318566103931516,114.54279802862789,-222.590397965163,172.28391490303497,137.82613763958216,97.01661941712547
20.171231427695602,1.990875068200672,2.6289048737380654,1.0239755569325304,20.151663914788514,0.4873746879294719,27.261800430715084,114.07234787732735,-228.18407819792628,175.88199665382655,138.42016484588385,97.82177789460698
20.35395648283884,1.9985204098483385,2.6667981147766113,1.0367140544224427,20.333397599402815,0.4895521553833954,28.25003626709804,113.57969610317161,-233.80739033222198,179.51987126841826,138.97589615173638,98.6151512646925
20.538693563081324,2.0066022025423536,2.704824000131339,1.0494480497385654,20.51655561476946,0.49126440363075446,29.28466401901096,113.0643810218724,-239.45883221924305,183.19616000108124,139.49433885514736,99.39543991020936
20.7270130882971,2.0155068180147717,2.7429823827114888,1.0622820823984627,20.7024324121885,0.4946105736617762,30.367081773467362,112.52664291973187,-245.13695111870766,186.91276094133923,139.97650586813688,100.16493923647111
20.904867727309465,2.0223898074062725,2.781273997912649,1.0750597835500408,20.883117481600493,0.49570482666464394,31.49870905932039,111.96629475300523,-250.84034403413534,190.66891223187503,140.42341445572674,100.92306590049365
21.07844523852691,2.0285882672802056,2.8196940197376534,1.0879798242118617,21.059159176889807,0.49961707347969075,32.68097510654479,111.38277341532702,-256.5676578730345,194.4618218877136,140.8360745497048,101.667080997033
21.255291774403304,2.035697441049996,2.8582380354055203,1.1009145778142835,21.235304687637836,0.5018647631756346,33.91530886525288,110.77649455848756,-262.31758934631944,198.29293813551928,141.21547945216298,102.39879395919574
21.429349928162992,2.042416565038942,2.8969051130115986,1.1138195896750238,21.409818443004042,0.5031128209379128,35.203157742507756,110.14762074593916,-268.08888413757086,202.16198957477891,141.56260854378343,103.11819580194827
21.6063551469706,2.0498302351419473,2.93569312436739,1.1268031816727204,21.58544747158885,0.505952658697558,36.54597960365936,109.4960648598248,-273.8803363032639,206.0672450289948,141.87841934897006,103.82375788987311
21.777007270604372,2.055957515088928,2.974601826048456,1.1397075985030296,21.75771057512611,0.5064634901354953,37.94523525564,108.82274537630973,-279.6907873824239,210.0106140092167,142.16384119912982,104.51776444322269
21.946047828998417,2.0616760269545034,3.0136279899743386,1.1522907146687162,21.927660102490336,0.5024889247939222,39.40240579750389,108.12752518095854,-285.51912531629205,213.98926217215427,142.41977819241583,105.19758459991411
22.112408697605133,2.0667261687471994,3.0527691996539943,1.1652767597883615,22.09507599938661,0.5097947794950206,40.918968938756734,107.41136757517205,-291.3642833568156,218.00412674411882,142.6470985133201,105.8644890375922
22.279600703623146,2.071922389064715,3.092022697732318,1.1781594979592633,22.26197726279497,0.5104928144980231,42.49641736596823,106.6749257547509,-297.22523836791515,222.0543575816415,142.84663849323988,106.51792235598586
