coupler,coupler,$D^a [mM]$,$D^a [mM]$,$I_{islet}^a\ [pg/islet]$,$I_{islet}^a\ [pg/islet]$,$\gamma^b$,$\gamma^b$,$I_{cell}^b [pg/islet]$,$I_{cell}^b [pg/islet]$,$G^b [mM]$,$G^b [mM]$
2.696762793639209,1.0730048205154203,0.5037754067016067,0.07094278084186954,2.2076934021315537,0.14293860862275162,11.004381649428979,120.98935495571617,2.662728616996901,2.2502470558424195,5.436810191196855,35.356225973858834
2.9783703784341924,0.9652048359494774,0.508979913269286,0.10013896367061269,2.4152824551565573,0.20571965598810574,11.003091039252467,120.99399195332794,2.97265871061245,0.5942109494246458,7.672394861001521,35.559502662887525
3.2582498947158456,0.925651765543086,0.515489177123527,0.12286793723417244,2.622726274013985,0.2576327387359954,11.001765089924447,120.99850046882428,3.2457612403668463,0.574028686902703,9.9084168006666,35.80443706773809
3.536624928470701,0.914542032935534,0.5231977992079919,0.14225017028755377,2.8299876309465617,0.30417807992748774,11.00045910908375,121.00310434127938,3.513825078262016,0.602560402490058,12.144891421543434,36.09068760786235
3.8134227318223566,0.9190632056144185,0.5320157619862584,0.1595456947972894,3.0370323437382467,0.3475213298492971,10.999175133183599,121.0076272844393,3.7799635530100204,0.6198750964379803,14.381818229099736,36.4167704385059
4.090087610296905,0.9329006689566036,0.5418652519729221,0.17549549604136172,3.2438288560369983,0.38897563367224386,10.997914555598982,121.01215110859496,4.045787868555635,0.6411024652556424,16.619188917567953,36.781877140855144
4.365623693098314,0.9523242320378469,0.5526782209344674,0.19024196458092751,3.4503479067934677,0.4285224840689969,10.996679101139307,121.0167280917245,4.3105629052734,0.6652353402656743,18.85699730576016,37.18512384818686
4.6396248346427456,0.9749470219837941,0.5643950981320813,0.2040042762771647,3.6565621697809547,0.46644376415775124,10.995470402995124,121.02137880057673,4.573849639156833,0.6903965551726342,21.09523882623762,37.625474552646985
4.910768695524894,0.9990674564296593,0.5769631060538813,0.2176500193651668,3.862446051905863,0.504917221632996,10.99429000238888,121.02589668212246,4.834414085838944,0.7005420965652481,23.333909334847704,38.100486380943636
5.180565510760061,1.0239848039092672,0.5903341597731924,0.23035244201217134,4.067975732381456,0.5414490883387606,10.993139002239332,121.03048421595886,5.093492071726359,0.7242096660523321,25.57299710251391,38.61006286935667
5.450484990957193,1.0494847382358374,0.6044663477659924,0.24276252289102815,4.273128514527343,0.5777525999739116,10.992019070545211,121.03503339676948,5.352529976284131,0.739591365222724,27.812497077975422,39.15217151545102
5.718994796741754,1.0749883385175463,0.6193210718920454,0.2547836283781008,4.477883127517998,0.6134327349336016,10.990931671811268,121.03950606803251,5.610293348552659,0.7513454087957986,30.052399437408894,39.72514368907988
5.9859256179770455,1.1002263054613335,0.6348635175527306,0.26667702166512786,4.68221939180512,0.6491667930324896,10.98987817473244,121.04411606914792,5.866506406280678,0.7794097901889651,32.29269289551303,40.32932947220905
6.251774207456037,1.1251552549532644,0.6510616741288686,0.27830156006006673,4.88611824833788,0.6844554010941105,10.988860250334255,121.048703057921,6.121588700916618,0.7946289466640463,34.53337361430749,40.96212605233143
6.51723722810857,1.1498484244351632,0.6678864709247136,0.2895419166897214,5.089561533299275,0.7188816595314235,10.987879071501084,121.05321520729935,6.376209202688187,0.8049187045169912,36.774431355297565,41.62173128680195
6.781154379015788,1.173973071852034,0.6853113796241814,0.300775997259883,5.292531887302175,0.7535353500616337,10.986936031607911,121.05782772203905,6.629390574409626,0.8294937076422719,39.015853490680456,42.308484736134496
7.044685694621876,1.1977520637776833,0.7033115124941105,0.31184196018282406,5.495012899511494,0.7878739533281741,10.986032733344473,121.06239448860094,6.88207917206455,0.8415183537984908,41.257633610162884,43.01974506918013
7.305347939953208,1.2205834039951482,0.721864067541901,0.32286112620570184,5.696988838142715,0.8222282125001464,10.98517037963029,121.06695329180089,7.132134749204852,0.8563109357139436,43.49975930573419,43.75466046123647
7.565966548398137,1.243166220687647,0.7409477707842598,0.33381285102972924,5.8984447120456025,0.8564986897871574,10.98435011075344,121.07152659177929,7.381886220420711,0.8727336789334016,45.74221977824345,44.512294476131146
7.825490231625736,1.2652818537624766,0.7605428720853524,0.34471468464488186,6.099366164300591,0.8907086879831789,10.983573400881141,121.07611620509454,7.630620368290693,0.8891392088918153,47.98500407394022,45.29154493485019
8.08407033723779,1.2870018275935569,0.7806309455045266,0.35556602550706007,6.2997394448611885,0.924829714499288,10.98284155887086,121.08066392897642,7.878402133472264,0.8998960897963805,50.228101095184684,46.090666475289574
8.341547180898488,1.308319421450111,0.8011947765771765,0.3662401301238299,6.499551371205598,0.9584480973717356,10.982155767618679,121.08518742116055,8.125094334362075,0.9118769762866087,52.471497242338955,46.908808568823815
8.59831246198155,1.329359886602703,0.8222183751349803,0.37710706844389513,6.698789211688563,0.9926874294784709,10.981517309322953,121.08973073120328,8.371035850141197,0.927801440743787,54.71517925709486,47.74550253389965
8.85223279776983,1.3496112475087383,0.8436863585375249,0.38780224418034753,6.897440929198638,1.0264029186522374,10.980927573982626,121.09428787865988,8.614340576226823,0.943010851100411,56.95913501828909,48.59973645579765
9.10254921275191,1.3688979598849857,0.8655846236506477,0.39843979639111776,7.095494765089825,1.0599344644411395,10.98038745240774,121.09890272303439,8.854136874200776,0.9622778095312583,59.20335232280195,49.47117242809281
9.352973761968315,1.3881868715582737,0.8878997693827841,0.4090365141091277,7.292939455714077,1.0933218410133532,10.97989771363791,121.10345089725931,9.093678488279693,0.968910181248376,61.447820542380214,50.35736149624233
9.601719303289428,1.4070611596144358,0.9106191300379578,0.4198694709513875,7.489764162572101,1.1274023936681379,10.97945938934572,121.1079844059588,9.331682412419468,0.9803547525480166,63.692523408681154,51.258160512851205
9.849473494337872,1.4257068704800762,0.9337304776126985,0.43049483484654466,7.685958615038544,1.1608054232996392,10.979073618655093,121.11250291748208,9.568639301112853,0.9915453194292508,65.93744662590325,52.172793115383584
10.09459899761714,1.4437130116171295,0.9572226304735523,0.4410738741055673,7.881512651452795,1.1940197475859673,10.978741510421969,121.11711375402707,9.803124689031392,1.013735895616675,68.18257538601756,53.1019990339631
10.338946440955624,1.461551450461581,0.9810848394117784,0.4515170136616651,8.076416564406827,1.2267684343743048,10.978464093990624,121.12166461263035,10.036661746446043,1.0198990092616929,70.42789889872074,54.04299010763144
10.580595165723935,1.478743867325364,1.0053069698042236,0.4622067694143162,8.270660918205976,1.2602049876797048,10.978242071694694,121.12621537412797,10.267674253205769,1.0319829365179056,72.67340010683984,54.995951010141226
10.823199713602662,1.4961987016118303,1.0298790645902045,0.47290270889371794,8.464236855739728,1.2935931451733218,10.978076273109764,121.13072429363017,10.499293750151992,1.03934147274544,74.91906437184662,55.95966963248061
11.061665181070566,1.5126087507838248,1.0547918398224283,0.4835032666380059,8.65713568055071,1.3266246789708775,10.977968008606695,121.13524265159647,10.727248032111675,1.0521037438145997,77.16487443633378,56.9343048877106
11.299038182245567,1.5286726979982375,1.0800365222094115,0.4937221838531254,8.8493489199318,1.3584459075290736,10.977917756419629,121.13981439119118,10.953851916245185,1.06953254154621,79.4108157241717,57.919956930840584
11.5374642603565,1.5448742504948336,1.1056049538601656,0.5044450122320209,9.040868170792237,1.3916972993979788,10.977926523657516,121.14435822526121,11.181267929496244,1.0778518417160792,81.65687448065728,58.91490568496188
11.77317876345478,1.5602368837247287,1.1314886692271102,0.5152455134435674,9.231685933889821,1.4250992980396193,10.977995526860468,121.1490193810603,11.406324204755947,1.1023191503884986,83.9030330972746,59.92084531181376
12.008710175286978,1.5753550104380987,1.157679890486179,0.5261021418421328,9.421794681577012,1.4585847000404946,10.978125776979141,121.1535342207976,11.630979265202768,1.0969959200369874,86.14927978720516,60.933317558166145
12.246804834110662,1.5909750887268364,1.1841711846354883,0.5366667965941896,9.611187123460695,1.491131378450315,10.978317595901899,121.15806743227266,11.85790071892552,1.1098874539516652,88.39559235982597,61.95440778826938
12.48005118733272,1.6054012895356322,1.210955671092961,0.5474032276372194,9.79985594120808,1.5241009548040314,10.978573307977058,121.162609891162,12.08068501681555,1.1219382419007713,90.6419538045302,62.983565558963136
12.710622461512685,1.619259742604637,1.2380264246312436,0.5582035989898316,9.987794398097321,1.5571746958089112,10.978892929502763,121.16717640547499,12.300647804280743,1.1354666661510637,92.88834784831852,64.02063593951956
12.944774307310581,1.6341596644269374,1.2653768704622053,0.5691110254918523,10.17499590315856,1.5904752915023501,10.979276859783567,121.1717378012232,12.523550773388706,1.1453912611146597,95.13475845009089,65.06479462190758
13.172971321735531,1.6478878218726432,1.2930006612150464,0.5801534807497917,10.361454119207337,1.6240802172610622,10.979727036552504,121.1762850916042,12.741388320922852,1.1542341994417007,97.38116675335914,66.11555392270824
13.397836786229163,1.660998394629116,1.3208916743460577,0.5910134007598599,10.547162950970232,1.6570783932485218,10.980243078316562,121.18091121806563,12.955720912432298,1.1739232891296694,99.62755527161062,67.17407566415879
13.621111724991351,1.6738095242791684,1.3490442168549635,0.6019541014715152,10.732116230530664,1.6902259544013698,10.980825339211151,121.18547990115542,13.16827160003595,1.177134413680621,101.87390958890319,68.23785494053838
13.849976819008589,1.6879210419218391,1.3774526383785997,0.6129163016095847,10.916308202315122,1.723353876111021,10.981473896186799,121.19004585212663,13.385675366502255,1.1865990127694255,104.12020972184837,69.30749042186368
14.078546037431806,1.7018490925060212,1.40611152825295,0.6239313135070802,11.099733256502077,1.75655115452098,10.982191551942378,121.1945409021399,13.603298352099955,1.1877983471855147,106.36643584631383,70.38159396524799
14.303984489757568,1.7148647064564704,1.435015647293767,0.6349623354338825,11.282385983737186,1.7897147164803935,10.982979273307137,121.19913890428624,13.8181258731056,1.210401355369888,108.61256622709334,71.46276430856466
14.520847270265222,1.7257810358967813,1.464159958588425,0.6460841566156681,11.46426112554036,1.8230542686307298,10.983837879728526,121.20376002382942,14.024956134147942,1.2231801692028423,110.85858587920666,72.54943087046534
14.742340911179781,1.7377825557943318,1.4935395535139833,0.6571784462633994,11.645353652304038,1.8562408651921747,10.984765520785004,121.20836786453418,14.235154905589297,1.230939922140289,113.10447825305164,73.64075539693589
14.962425416335464,1.7495980456417293,1.5231497540080454,0.6682745969400299,11.825658596819267,1.8893584745226635,10.985764216980897,121.21304106468918,14.444422825006768,1.2486255786032052,115.35022283345461,74.73783130042688
15.18084729788825,1.7612851069925843,1.552986017864896,0.6795078056433757,12.00517118233256,1.9227800734677658,10.986834998126142,121.2175247933964,14.652101925574243,1.2338817383748457,117.59580253623426,75.836168160898
15.394530809018761,1.7722223157923407,1.5830438754637726,0.690717468148943,12.183886911487207,1.9560652377336547,10.9879773928551,121.22205860820391,14.855358307715505,1.2492506164176835,119.84119095653296,76.93962273867533
15.610176770016551,1.7838798802906168,1.6133190850378014,0.7016135534970869,12.36180128552951,1.9884292853609602,10.98919175437186,121.22672123934181,15.059939424041659,1.2749056644701688,122.08637135848403,78.04933669019218
15.82409245800227,1.7953327009372104,1.6438076872727834,0.7127993641883976,12.538909645285457,2.021513777130972,10.990479859756306,121.23140539399192,15.26309665851295,1.286880494575972,124.3313281275332,79.16329454824378
16.030927933752537,1.8052854444887938,1.674505530798342,0.7240643430357673,12.715208090376109,2.054746312528546,10.991841782466508,121.23599232082297,15.459740255959332,1.283150040014773,126.57604207471013,80.27929676953302
16.243225620593876,1.816472863208547,1.7054086981224827,0.7352454447730002,12.890692650806159,2.087690841595542,10.993275625398383,121.24056009155501,15.660649520810694,1.2890422877517798,128.82049104571342,81.39853220146807
16.453896017745137,1.827243101949101,1.7365134683786891,0.7464675997315978,13.065359317231923,2.120684479957688,10.994784198584966,121.24517557589708,15.860521916067228,1.3039884959713774,131.06465334631503,82.52200091660073
16.661852287128568,1.837378137969312,1.7678161674411967,0.7575831320548426,13.239204331301153,2.1533374193532726,10.996368356398307,121.2497608472452,16.057849142933264,1.308604784520325,133.3085103444755,83.64820614960837
16.866627167910337,1.8468187461215875,1.7993132963893004,0.7689719856494629,13.412223913241178,2.1866555534367165,10.998027754481882,121.25438353385277,16.25205990788527,1.322001132031994,135.5520408153534,84.77818596724042
17.06934374338016,1.8558613937536863,1.8310012753936462,0.7801173140965281,13.584414824377745,2.2192792352308124,10.999762390973046,121.25904092287038,16.44410795229487,1.3349958130484272,137.7952262442559,85.91175784672669
17.27451974945143,1.865552005789346,1.8628768662456423,0.7913817086705388,13.755773361306638,2.2521627715821535,11.001572311040945,121.26358680878302,16.63815468456596,1.3280870727450351,140.03804779984057,87.0462415804245
17.474977941717952,1.8743470656195906,1.8949367507593706,0.8027429596489428,13.926296355668455,2.285247509115164,11.003458552295342,121.26818991390464,16.828156830975786,1.3438840876733855,142.2804801594466,88.18448438556885
17.680251692887396,1.8843204751603264,1.9271777110989206,0.8140459600633548,14.095980721060187,2.3181327846825224,11.005421113455668,121.2729275030879,17.022090188227594,1.3702546501251225,144.52250556647778,89.32772235645399
17.8803479061462,1.8932707557909718,1.959596683678683,0.8256222509670553,14.264823312405497,2.35167375584815,11.007462801062502,121.27760238258563,17.211758627090603,1.3700416062245877,146.7641068212688,90.4723588837381
18.0786959878169,1.9019201916712876,1.9921905399532989,0.8371481421116534,14.432821489404887,2.385038421372982,11.009581902064383,121.28225608452185,17.399429089622572,1.374962358947394,149.00526110082865,91.61903253351342
18.27570774545893,1.9103372118248896,2.0249563735560514,0.8485154763592242,14.599972335156053,2.4179554244832655,11.011778612621129,121.28696871626441,17.585698985494673,1.390867949112213,151.2459470462054,92.7690653433027
18.468707563355565,1.9179424486843324,2.05789139715489,0.8601448607371662,14.766272894106805,2.4514951033584396,11.014053547871299,121.29174032139493,17.768220093101263,1.406831714894731,153.48614585772157,93.92235660943882
18.667224335018545,1.9268525732576032,2.090992714918684,0.871774589501565,14.9317208356224,2.4849941788593797,11.016405956819654,121.29644116587525,17.95533368596807,1.404698942301127,155.72583932243288,95.0765030630279
18.85840617166832,1.934403559197711,2.124257613730151,0.8834417782021663,15.096313607878983,2.5185478411104056,11.018837993266061,121.30110770018918,18.13630727515556,1.4074680647752698,157.96500244364142,96.23207756594515
19.05664525507018,1.9437497899281175,2.15768343093805,0.8951431051805984,15.26004879642278,2.552149072506496,11.021348002250306,121.30579773411928,18.323020670795813,1.4181353629094218,160.20361398532987,97.39003578536409
19.252171551343054,1.9528984730365524,2.1912675685598515,0.9069315645081202,15.422924091108143,2.585930650883061,11.023939538630657,121.31061527832371,18.507868920685723,1.4436654084084246,162.44165196456015,98.5521561270728
19.43473202176392,1.9597239573101366,2.225007468892727,0.9187182917751455,15.58493733825162,2.619673259605829,11.02661312080454,121.31536461970506,18.680863889399916,1.4417986526463358,164.67909931205213,99.71483750324197
19.62341604521498,1.9681911584708023,2.258900671149604,0.9305186826182689,15.746086357627064,2.653416897555555,11.029363347566687,121.32008334150248,18.85818728338927,1.4444283834178298,166.9159345217049,100.87869461537667
19.809314584359527,1.9763258073490788,2.292944764252752,0.9421070835803592,15.906369084026664,2.686611741156683,11.032193034421653,121.32484092098782,19.0334392383229,1.457087387678402,169.15213446877897,102.0449125457028
19.990520518738776,1.983628239832383,2.3271374777541496,0.953673436173821,16.065783218014985,2.7197269230889347,11.035102338762954,121.32966156705695,19.204263439401984,1.4732123484980668,171.38767967745662,103.21385647864905
20.171231427695602,1.990875068200672,2.3614765204838477,0.9653930246343654,16.22432679357007,2.753189201581335,11.0380900882883,121.3343161244616,19.374202189035714,1.4563557249304147,173.62255205400288,104.38131806120255
20.35395648283884,1.9985204098483385,2.3959595863125287,0.9772116914621711,16.381998184602708,2.786866414618028,11.041155416052788,121.33907614342185,19.545868031447753,1.4781678644650953,175.8567246813327,105.55217076745386
20.538693563081324,2.0066022025423536,2.430584438960068,0.9889363499831457,16.538795778062195,2.820295252390997,11.044301172252744,121.3437766087437,19.719520446145907,1.4765405094485917,178.0901799313724,106.72335245660382
20.7270130882971,2.0155068180147717,2.4653489635675214,1.0008060416867206,16.694717761594802,2.854050128119971,11.047528170747682,121.34857292360803,19.89659881335683,1.4972506001903312,180.32289347611368,107.89763364368254
20.904867727309465,2.0223898074062725,2.500251001911238,1.0127088621322444,16.849762747064233,2.8878638483707464,11.050839548930526,121.35330392527368,20.064604606479406,1.4948637179230346,182.55484593100846,109.07201916413351
21.07844523852691,2.0285882672802056,2.5352884831954725,1.0247124403448578,17.003929265309125,2.9218973496932303,11.054230890586041,121.35807642401004,20.227857019752264,1.507481557305463,184.7860148269683,110.24841054813085
21.255291774403304,2.035697441049996,2.5704593567643315,1.0365752232571883,17.157216012943536,2.9555820184465174,11.05770111491438,121.36275781901811,20.393579612253234,1.5005909009709386,187.01638154685497,111.42433856675225
21.429349928162992,2.042416565038942,2.605761695362162,1.0485375550021945,17.30962141463533,2.9894854366823793,11.061251361272298,121.36745622436825,20.55704315798357,1.5094518024880417,189.24592099897563,112.60173907614546
21.6063551469706,2.0498302351419473,2.6411935321521014,1.06046080484438,17.461144322995096,3.023284120379305,11.064881739439443,121.37223129671763,20.722936757840216,1.527221635774506,191.47461311146617,113.78165241292417
21.777007270604372,2.055957515088928,2.6767529848148115,1.0724824441472014,17.61178344208747,3.0572994364588584,11.06859441078268,121.37697091928267,20.883359249681234,1.5285406009240554,193.7024386227131,114.96197399199396
21.946047828998417,2.0616760269545034,2.7124381622415967,1.0844193740071577,17.761537768878043,3.0911082864780544,11.072386717656627,121.38172171760631,21.04178798245266,1.5364093124867013,195.92937588505447,116.14352002364127
22.112408697605133,2.0667261687471994,2.7482472717529163,1.0965032222518696,17.91040607402101,3.1252462754065324,11.076258508488536,121.38657208593845,21.197609469294548,1.5574134198976506,198.1554047241807,117.32786632711793
22.279600703623146,2.071922389064715,2.784178480214905,1.1084973807471712,18.05838756589219,3.159170814796761,11.080209550913423,121.39143565080269,21.353922199225053,1.565633491266738,200.3805084247142,118.51337637489664
