coupler,coupler,$D^a [mM]$,$D^a [mM]$,$I_{islet}^a\ [pg/islet]$,$I_{islet}^a\ [pg/islet]$,$\gamma^b$,$\gamma^b$,$I_{cell}^b [pg/islet]$,$I_{cell}^b [pg/islet]$,$G^b [mM]$,$G^b [mM]$
2.696762793639209,1.0730048205154203,0.5037754067016067,0.07085537706653619,2.5989489148487337,0.14141375954159716,11.004381649428979,120.98949521289204,2.390455209388165,19.855590438419814,5.436810191196855,35.356365598811124
2.9783703784341924,0.9652048359494774,0.5113989089004463,0.10014654864212932,2.944003894983325,0.16320867659717608,11.007714995765127,120.99398068531355,2.6819192975235637,18.038830746432435,7.672475199855398,35.55975379160488
3.2582498947158456,0.925651765543086,0.5208628929249244,0.12316607866011803,3.236875616479665,0.1750864213172269,11.010245102690533,120.99848604821379,2.884167309734039,16.52132036013344,9.907305117812939,35.80525946172317
3.536624928470701,0.914542032935534,0.5317287506040884,0.1431074625303141,3.518096609856002,0.1849931955334159,11.01216330495663,121.00294615890851,3.006006081326632,15.277457849861632,12.141546566504985,36.09186038990364
3.8134227318223566,0.9190632056144185,0.5438263313117204,0.16032740871970552,3.7957177116768435,0.18957999858292243,11.013618453172967,121.00744412633989,3.0553441138763446,14.281508746702615,14.375388512038626,36.41882533658462
4.090087610296905,0.9329006689566036,0.5570477623696206,0.17638106959918942,4.072505480027758,0.19790963828422628,11.014726149616763,121.01186894669334,3.0394355279568117,13.50635471572403,16.608979685232043,36.78463599646649
4.365623693098314,0.9523242320378469,0.5713097802217817,0.19153735011270334,4.348217200604267,0.20576468431259665,11.01557586248964,121.01632467488517,2.9647031897329725,12.924556059642358,18.84243096760474,37.18853354210438
4.6396248346427456,0.9749470219837941,0.5865402656345395,0.20600061640490794,4.622479900135659,0.2132166107619129,11.016236875904724,121.02068932635947,2.836882383795455,12.507803573680098,21.07583060977049,37.62862713131648
4.910768695524894,0.9990674564296593,0.6026750065357191,0.2200098485129124,4.894161536474712,0.2210464288545386,11.016762668965384,121.02517001083996,2.660998918028781,12.229421727308267,23.309241822222248,38.104765537786456
5.180565510760061,1.0239848039092672,0.6196539500815561,0.2333222942919889,5.164244274725206,0.22577384183416951,11.01719482243061,121.02960030499831,2.441724367905408,12.063484560715297,25.542719217948616,38.614621404749435
5.450484990957193,1.0494847382358374,0.6374272409157129,0.2463979685896689,5.43410064955242,0.2330857719001838,11.017565571703017,121.03409753779673,2.183407826902112,11.987551478828241,27.7762986891903,39.157619953244
5.718994796741754,1.0749883385175463,0.6559533877152717,0.25906544269819837,5.702779617044143,0.23827225822977566,11.01790030032862,121.03858932563222,1.8898087199486326,11.981892968963674,30.01001029741019,39.731900838476534
5.9859256179770455,1.1002263054613335,0.6751930386672029,0.27152950592644104,5.96995575260371,0.24450721286311086,11.0182191535132,121.04314680033764,1.5642923263076227,12.030480463340089,32.243873497936875,40.336683676155836
6.251774207456037,1.1251552549532644,0.6951094633550383,0.2836109472711293,6.235961621510796,0.2484181603095357,11.018538511707447,121.04769304693633,1.2099362366570858,12.120188498436448,34.477903832215816,40.97002480895101
6.51723722810857,1.1498484244351632,0.7156704412627732,0.29557005247968626,6.501421271590516,0.25422043146289186,11.018871980253607,121.05221121336132,0.8295792793651344,12.240913666879536,36.712108737789094,41.63046167581977
6.781154379015788,1.173973071852034,0.7368475908733672,0.3073649818506795,6.7655314828734845,0.25925247782106764,11.01923126494512,121.0567588657088,0.4256600303997402,12.385039926097784,38.946490505710244,42.31726506362237
7.044685694621876,1.1977520637776833,0.7586133407021407,0.31919833666395625,7.0290598042774945,0.26606231475677283,11.019626822555438,121.0613143690943,0.0004890805710431323,12.546817795262616,41.1810496263206,43.02903185222621
7.305347939953208,1.2205834039951482,0.7809437578107463,0.33097608894265895,7.290173348272219,0.2716802103566374,11.020068313926458,121.06587604631329,-0.44410241746663814,12.72209311950291,43.41578230122104,43.76459466893779
7.565966548398137,1.243166220687647,0.803813236329006,0.34244812182528206,7.5507660179864615,0.2740410320588776,11.020564967184328,121.07042268708403,-0.9061837670305977,12.911375509700175,45.65068150823936,44.522631804370576
7.825490231625736,1.2652818537624766,0.8272020009171683,0.35392945642187945,7.810375690227374,0.2795332655397316,11.021126908948645,121.07484055140439,-1.3841222254704917,13.111909577611259,47.885736390948296,45.30083692174869
8.08407033723779,1.2870018275935569,0.8510903286805842,0.36542715142353877,8.069031180581078,0.28504372279267304,11.021764126839116,121.07938405130673,-1.8764327976678032,13.322045390419394,50.1209287554957,46.10107106537796
8.341547180898488,1.308319421450111,0.8754601214022841,0.376956801495695,8.326610613847151,0.29057304042262366,11.02248671487905,121.08383852437115,-2.3817942741443403,13.5402770160273,52.35624645045027,46.91995609007392
8.59831246198155,1.329359886602703,0.9002942639344838,0.38852442386233654,8.583403098629788,0.2960241023443977,11.023304857546464,121.0882642075896,-2.898977951903362,13.765877614128886,54.59166643768549,47.75732147411035
8.85223279776983,1.3496112475087383,0.9255772485630587,0.399923811318273,8.837759853107855,0.29871480049551796,11.024229014874436,121.09258540702443,-3.4270904658478685,13.99818106076545,56.82716471236199,48.61142321535434
9.10254921275191,1.3688979598849857,0.9512919161061291,0.4114262017989401,9.08874401403591,0.30449314051347526,11.025269911042415,121.09689281899664,-3.965402776899282,14.237136948605235,59.06271144840866,49.482627227760894
9.352973761968315,1.3881868715582737,0.9774203480919823,0.42266882823305096,9.33913799165748,0.30551589485001013,11.026438701665029,121.10100800680299,-4.512886404292658,14.482096762313198,61.29827693942934,50.36794484276493
9.601719303289428,1.4070611596144358,1.0039505812746938,0.4341493638381489,9.588068621931598,0.3126698473244231,11.027746719541028,121.10514408699251,-5.0687933001318015,14.733740946571327,63.53382171038538,51.269486635953676
9.849473494337872,1.4257068704800762,1.030869403766701,0.44566376594307694,9.835911529138684,0.317335561087548,11.02920590841677,121.1091572850807,-5.632379942515399,14.991570566529791,65.7693107239902,52.18475337270866
10.09459899761714,1.4437130116171295,1.0581653402477968,0.45712621269948117,10.081432034494355,0.32063507534711255,11.03082839178387,121.11299791526817,-6.203139550110791,15.255466248587172,68.00470022298396,53.11250639879906
10.338946440955624,1.461551450461581,1.0858256576175336,0.468492252566394,10.325863762991503,0.3230935589698452,11.03262659208849,121.11689166842793,-6.780429283273406,15.526513127874221,70.23994128685445,54.05533934098608
10.580595165723935,1.478743867325364,1.1138400586205535,0.4799736254450415,10.567916985368356,0.32829710382524324,11.034613642259501,121.12055418837522,-7.36386076384224,15.803417261998208,72.4749895548448,55.0088285121906
10.823199713602662,1.4961987016118303,1.1421968039649073,0.49142448950730766,10.810257481178269,0.33150381899557385,11.036802528426051,121.12404887489355,-7.952717299456708,16.086632345945254,74.70978678483516,55.97343247619667
11.061665181070566,1.5126087507838248,1.1708886141132098,0.502782910064683,11.04934253799729,0.3336508989701145,11.039206642541103,121.12736067980784,-8.54686110559851,16.37614912208437,76.94427326787263,56.94854285441631
11.299038182245567,1.5286726979982375,1.1999037423811387,0.5145983853337055,11.286900954321027,0.34342443991090293,11.041839707526378,121.13053263435961,-9.145861210650764,16.672262431697146,79.17838517576456,57.934432510417444
11.5374642603565,1.5448742504948336,1.229232959827641,0.5260752285509063,11.524995069717988,0.34222376463224913,11.044715816387907,121.13356374349594,-9.749112718156539,16.974970253679608,81.41205639205873,58.93077251460035
11.77317876345478,1.5602368837247287,1.2588708366674837,0.5378906287794436,11.76102557266131,0.35014579934078316,11.047849278897047,121.13627397849402,-10.35644513554871,17.283147068460604,83.64521690551192,59.93459848147187
12.008710175286978,1.5753550104380987,1.2888081171258818,0.5495040866886884,11.996495535830036,0.3506275267519837,11.051254216814414,121.13892317967705,-10.967449466465041,17.598561569040452,85.87778629455715,60.94955885657481
12.246804834110662,1.5909750887268364,1.3190384327608626,0.5609510519708135,12.233902612933889,0.35113140564407813,11.054945689626038,121.14132015780517,-11.581479846732691,17.919776240694027,88.10968970134854,61.97252890396494
12.48005118733272,1.6054012895356322,1.3495584177726414,0.5726292086930236,12.467817133758217,0.357450530845918,11.058938283938915,121.14334924236007,-12.198693279759027,18.246006458257366,90.34084125328809,63.00153409745402
12.710622461512685,1.619259742604637,1.3803581611427944,0.5842898853956734,12.698891859967262,0.3602781546905465,11.063246559351683,121.14512499729753,-12.819010397884995,18.578162194664607,92.5711471280083,64.03816853278224
12.944774307310581,1.6341596644269374,1.411429272237001,0.5960009542101606,12.932261859532446,0.36388839881235674,11.067885710508563,121.14664352241975,-13.441730565624312,18.916132723919993,94.80051390267909,65.08222052164471
13.172971321735531,1.6478878218726432,1.442769452900393,0.6076308476651395,13.161325897555798,0.3655354653040439,11.072870941949077,121.14784072671173,-14.067173124291003,19.259337934730507,97.02884383685887,66.13255336092105
13.397836786229163,1.660998394629116,1.4743691141775344,0.6195009530976705,13.386862353887409,0.37186578244109303,11.07821753632743,121.14878202432065,-14.695359362056479,19.60826321821176,99.25603316444904,67.19009311219057
13.621111724991351,1.6738095242791684,1.5062197370862123,0.6313327384093544,13.610419840086251,0.37412816520525854,11.083941271528602,121.1493592830134,-15.326130296336487,19.961911079572193,101.4819766022265,68.25303014971738
13.849976819008589,1.6879210419218391,1.538315101788612,0.6430479616802789,13.83805263089016,0.37492814619020104,11.090057650115341,121.1495794627422,-15.958620689343661,20.320343306619275,103.70656098239124,69.32140804388685
14.078546037431806,1.7018490925060212,1.5706556142831687,0.6550096250097907,14.06626276904717,0.3812661561590639,11.09658211574424,121.1493970907186,-16.592636021785438,20.683134462854547,105.92966935224831,70.39443988690074
14.303984489757568,1.7148647064564704,1.603237718984019,0.6668750479453387,14.2920828377828,0.38255741048717545,11.103530025226064,121.14894456270726,-17.228280152892694,21.051418731875394,108.15117932856083,71.47423028556632
14.520847270265222,1.7257810358967813,1.636055197857786,0.678817379388601,14.510563388001174,0.3862466563514326,11.110917529673316,121.1481616480709,-17.86618630681187,21.4244554675258,110.37096954882145,72.55976691793904
14.742340911179781,1.7377825557943318,1.6690968176117167,0.6907474665554929,14.731279825326055,0.3885274474481106,11.118760890210979,121.14690903606125,-18.505598983028904,21.80090608509965,112.58891289494932,73.64876152670708
14.962425416335464,1.7495980456417293,1.70236150798155,0.7027205725720156,14.951315283309668,0.39161651021593613,11.127075568889268,121.14513591168246,-19.14643729594536,22.18041084850491,114.80487320199609,74.74038882358577
15.18084729788825,1.7612851069925843,1.7358452557236888,0.7146502156647111,15.169883627910167,0.3933356063963462,11.135876958956942,121.14299560969724,-19.788648480782285,22.56450745362082,117.01870893873274,75.83720054851528
15.394530809018761,1.7722223157923407,1.7695434642373584,0.7265584261028198,15.384367048740387,0.3952822460200298,11.14518141048029,121.14040925302103,-20.432487099897116,22.952283120216475,119.23028066009283,76.93791018352205
15.610176770016551,1.7838798802906168,1.8034491327707656,0.7387489435803093,15.599602655973285,0.4020276227830144,11.155005079926923,121.13739449956978,-21.077506763860583,23.343880437371027,121.43944243341684,78.0428489723918
15.82409245800227,1.7953327009372104,1.837559983599931,0.7509755952905021,15.813603829126805,0.4050866881534789,11.165364163345657,121.13391848650477,-21.7236692791339,23.738910891130686,123.64604545384645,79.1515110737071
16.030927933752537,1.8052854444887938,1.8718721403856762,0.7629976795907651,16.021693230140954,0.4040769197328071,11.176274767727591,121.13000319846702,-22.37146947067231,24.137569821919683,125.84993624314666,80.26431701680197
16.243225620593876,1.816472863208547,1.9063775385147892,0.7751121575966877,16.232969332952052,0.407552591517862,11.1877535386011,121.12554678948466,-23.020092454040423,24.53878405458107,128.05095889233053,81.37962030191561
16.453896017745137,1.827243101949101,1.9410764803760685,0.7874694229324471,16.44358033174649,0.4136986225904493,11.19981621997431,121.12056394063627,-23.669507685583085,24.9428031326354,130.24895035661757,82.49774286666636
16.661852287128568,1.837378137969312,1.9759658038965426,0.7996414463987187,16.651886431965977,0.4130169326974961,11.212478793109767,121.11502861723375,-24.319790014764294,25.349396256703706,132.44374499842525,83.61832463861208
16.866627167910337,1.8468187461215875,2.011041192628909,0.811971069166555,16.85718579730019,0.4175674345844647,11.225757272099145,121.10899863992806,-24.97104705311358,25.759206442868138,134.63517331704497,84.74242953857194
17.06934374338016,1.8558613937536863,2.046297580935061,0.824154891905917,17.060236636549234,0.41732118651322975,11.2396682362305,121.10246145754104,-25.623256731778383,26.172024932621206,136.8230649586767,85.86992945239408
17.27451974945143,1.865552005789346,2.0817309317644686,0.8365151173860569,17.2648047353141,0.4221193906019435,11.254228267003782,121.09529225474998,-26.275940740015358,26.586506980400312,139.00724616460502,86.99879939248478
17.474977941717952,1.8743470656195906,2.117340343131218,0.8488794519459023,17.46590156527236,0.4243153515917861,11.269452922279015,121.08754848459456,-26.92937956005335,27.00343443484474,141.18753583543003,88.13012432545825
17.680251692887396,1.8843204751603264,2.153120857255999,0.861207535679743,17.670156080275774,0.42567476410162713,11.285358519176953,121.07913038226039,-27.582865204662085,27.42176898763649,143.36375247314572,89.26231425184162
17.8803479061462,1.8932707557909718,2.1890731722232886,0.8737612242434946,17.870899614878,0.43137722659768524,11.301960330805741,121.07027247324828,-28.236752703785896,27.844186882156468,145.5357083734125,90.39947852624314
18.0786959878169,1.9019201916712876,2.225192323385272,0.8862876723666863,18.069542048033327,0.43304022640195255,11.31927569967229,121.06070075516288,-28.891011299099773,28.267431489598863,147.70322200655937,91.53703316540609
18.27570774545893,1.9103372118248896,2.261474808503408,0.8987075044535976,18.266694746445864,0.4331530823303173,11.337319890153594,121.0505084071075,-29.54556505708024,28.692791896558838,149.8660997375846,92.67669974888787
18.468707563355565,1.9179424486843324,2.297917664516717,0.9110758335179949,18.46033950103447,0.43405674991372806,11.356109036831185,121.03965860817114,-30.200605592224747,29.119887511328827,152.024149203673,93.81796691105326
18.667224335018545,1.9268525732576032,2.3345163460471667,0.9237197983383747,18.657695819158107,0.44046006956901007,11.375659227138385,121.02813852612118,-30.855344981420785,29.548658640969574,154.1771749611944,94.9607418522263
18.85840617166832,1.934403559197711,2.3712720629409887,0.9364063558554984,18.84992622351274,0.44324130243337395,11.395986000308767,121.01595412505282,-31.510351626668125,29.979242150142653,156.3249789569527,96.10524814927238
19.05664525507018,1.9437497899281175,2.4081792118377052,0.9488200338718785,19.04677688051015,0.440447710146179,11.417105461820029,121.00314380554602,-32.16469013085589,30.41209841713942,158.46736210398376,97.25226716400863
19.252171551343054,1.9528984730365524,2.4452399422298186,0.9615602294023777,19.24238095479086,0.4476181727845394,11.439033399219625,120.98949651475222,-32.81848784489557,30.844831660805685,160.6041247099638,98.39830590855168
19.43473202176392,1.9597239573101366,2.4824515372747555,0.9739551807506137,19.427362801972777,0.4437443508898709,11.461783975479193,120.97509995106185,-33.47287688404322,31.278796924704256,162.73505863919854,99.54501349461785
19.62341604521498,1.9681911584708023,2.519804587820545,0.9866399683397784,19.61511862417683,0.4501222136338575,11.485373243573122,120.95995813566402,-34.1269590803422,31.71414232129171,164.85995833203197,100.69260339889202
19.809314584359527,1.9763258073490788,2.557299664535094,0.9992263052204567,19.80120068322867,0.45031199585057313,11.509816699428484,120.94404676489668,-34.780808923300356,32.15065074890592,166.97861712612212,101.84079535259238
19.990520518738776,1.983628239832383,2.5949342707754113,1.012014409829206,19.98319359542802,0.4553792047496253,11.535129758995026,120.92735932070968,-35.4346760972403,32.58833485674142,169.09082667157054,102.98961700525344
20.171231427695602,1.990875068200672,2.632703995506745,1.0247403164481317,20.163972488604486,0.4560787709787742,11.561328093521297,120.90988809980477,-36.088357402943075,33.02718182500854,171.19637792371213,104.13907848427861
20.35395648283884,1.9985204098483385,2.670606796455104,1.0374177272261222,20.346119639929384,0.4567944211151063,11.58842722477857,120.89164868173583,-36.741410865448415,33.46743182693738,173.295061070472,105.28958376650046
20.538693563081324,2.0066022025423536,2.7086424775770865,1.0501139114861568,20.530149871483445,0.4586712246067197,11.616442499449477,120.8725989776,-37.39343071030453,33.908615667718244,175.3866663724184,106.4405468952341
20.7270130882971,2.0155068180147717,2.746811192308087,1.0629380673876325,20.71742245554924,0.4625150786493229,11.645388550125062,120.85280020469119,-38.0438864864409,34.3515141374734,177.4709825925529,107.59313766014151
20.904867727309465,2.0223898074062725,2.7851140334969386,1.0759634097126114,20.896971457172185,0.4677634649730635,11.67528013291303,120.83219334897703,-38.693697270937264,34.79538261345568,179.54780044034123,108.74646552347876
21.07844523852691,2.0285882672802056,2.823544311861042,1.0887896862538313,21.071553910616785,0.4660459660796236,11.70613223419059,120.8106609982128,-39.34306323993951,35.238964253805676,181.61690940894186,109.89867592366514
21.255291774403304,2.035697441049996,2.8620975626981817,1.1016478586081302,21.2477580527775,0.46797158931752403,11.737958956160583,120.78827150722783,-39.991401720326394,35.683348746779295,183.67809564247727,111.05108022416451
21.429349928162992,2.042416565038942,2.90077384194592,1.1146308283114015,21.42205570312217,0.47169221355188956,11.77077475329861,120.76499104779144,-40.63878566585481,36.1282261262396,185.73114820569754,112.20324031213278
21.6063551469706,2.0498302351419473,2.9395707912626676,1.1275408638518032,21.59832963347435,0.4720069904248218,11.804593853885308,120.74082578400888,-41.28469892544672,36.57379377073427,187.77585611864924,113.35539738264669
21.777007270604372,2.055957515088928,2.9784888344584033,1.140459751008903,21.769916207529604,0.4736200583305019,11.83943013229873,120.71575086270796,-41.92959874263033,37.01984115076799,189.81200960092247,114.50726118375114
21.946047828998417,2.0616760269545034,3.0175237877410837,1.1534577116499563,21.939275953453034,0.476472907486656,11.875297679449432,120.68970864462902,-42.57341424934566,37.46582040177907,191.83939954265952,115.65800225081368
22.112408697605133,2.0667261687471994,3.056673214712646,1.1665924331678064,22.106046529021114,0.48038232567030126,11.912209995207377,120.66286408646008,-43.21618028962985,37.91381830979162,193.85781650431454,116.810518227659
22.279600703623146,2.071922389064715,3.095934489101637,1.1795804808955326,22.27296416228637,0.4793077571433285,11.950182448839769,120.63496212543598,-43.857568946201354,38.3607110362072,195.86705825477839,117.96066390164407
