coupler,coupler,$D^a [mM]$,$D^a [mM]$,$I_{islet}^a\ [pg/islet]$,$I_{islet}^a\ [pg/islet]$,$\gamma^b$,$\gamma^b$,$I_{cell}^b [pg/islet]$,$I_{cell}^b [pg/islet]$,$G^b [mM]$,$G^b [mM]$
2.696762793639209,1.0730048205154203,0.5037754067016067,0.07073640511554205,2.2076934021315537,0.1425289067360666,11.004381649428979,120.9893130315203,2.526591913512675,11.036945865191976,5.436810191196855,35.35618423856495
2.9783703784341924,0.9652048359494774,0.508980090424302,0.10058916865850044,2.4152824332704768,0.20670698323206904,11.004474679939449,120.99388028680994,2.8817436858371366,5.656102842812002,7.672430976643227,35.55952795511798
3.2582498947158456,0.925651765543086,0.5154888387623942,0.12305111035168342,2.6227263140608557,0.2580053125487843,11.003519623307511,120.99832437213128,3.1503456478822045,3.141691592803919,9.908093262347393,35.80456219741746
3.536624928470701,0.914542032935534,0.5231972548499471,0.14203489898554253,2.829987713659648,0.30360482818956097,11.002320123836398,121.00281351586067,3.374921575305052,2.1249498282717507,12.144104929757304,36.090767915033176
3.8134227318223566,0.9190632056144185,0.5320155393128516,0.15914848289870637,3.0370323973475024,0.3465097723401963,11.00107424671296,121.00735457373116,3.5766887001809664,1.8088461009631573,14.380547170061618,36.41724795286871
4.090087610296905,0.9329006689566036,0.5418655917746946,0.1752256110040308,3.243828820879571,0.3883070094294744,10.999830268439837,121.01185217162511,3.7669756283285096,1.7352778643079918,16.617441073525697,36.78258183738576
4.365623693098314,0.9523242320378469,0.5526789254363393,0.1901184959063043,3.4503477924736217,0.42824910037847225,10.998599843122065,121.01634847100966,3.950948175333906,1.7270346015655427,18.854787859600037,37.185770393411765
4.6396248346427456,0.9749470219837941,0.5643959472799907,0.20424289264440715,3.656562000280246,0.46715823496768205,10.997386009199545,121.02088456252672,4.130986126023345,1.7348330299645853,21.092585637466982,37.62582018499015
4.910768695524894,0.9990674564296593,0.5769635861943243,0.21752368697153396,3.862445931066759,0.5045998633414404,10.996189843863249,121.02541616975341,4.307618239661679,1.745263470562853,23.33083250001073,38.10123542535288
5.180565510760061,1.0239848039092672,0.590334797903779,0.2303693695994142,4.0679755550809205,0.5415412130314374,10.995011884137057,121.02990657383437,4.481864050030708,1.7557546976899252,25.56952449423261,38.61045928145241
5.450484990957193,1.0494847382358374,0.6044669406110188,0.24288941052849755,4.273128326283768,0.5781596683378086,10.99385262397118,121.03442404936631,4.6549682703916915,1.76885567812362,27.808655903209,39.15261038906389
5.718994796741754,1.0749883385175463,0.6193214738013921,0.2551214511389687,4.477882967912592,0.6144527823899277,10.992712772102095,121.03904248957097,4.826787204830907,1.785724640526071,30.048222991637886,39.726942377207806
5.9859256179770455,1.1002263054613335,0.6348634575551841,0.26695713824399103,4.682219348382205,0.6500040444144766,10.991593059618026,121.04351256177337,4.997164436848834,1.7973421002787697,32.28822455042973,40.330156900043974
6.251774207456037,1.1251552549532644,0.6510612476413371,0.27869478655001334,4.88611831900198,0.6856237146428419,10.99049380409997,121.04800961075473,5.166270154295489,1.8137509494332145,34.52865016274154,40.96231747613809
6.51723722810857,1.1498484244351632,0.6678855495119933,0.29025248628685835,5.0895617784699425,0.7209991830825563,10.989415747346357,121.0525800655657,5.334538017457817,1.833835281516057,36.76949562411755,41.6225577953479
6.781154379015788,1.173973071852034,0.6853095897531603,0.3014326793656597,5.292532464838587,0.7554727008006145,10.988359631504864,121.05716773878704,5.501604787015822,1.854152837439187,39.01075809355825,42.309107017123196
7.044685694621876,1.1977520637776833,0.7033089536271291,0.3125812058151906,5.4950138229178265,0.7900509034673528,10.987325991038233,121.06175662768484,5.667868927586824,1.8750021357063245,41.25243258755654,43.02056040600478
7.305347939953208,1.2205834039951482,0.721860671081231,0.32353143292332165,5.69699017808307,0.8241809257211511,10.986315424437635,121.06638130482318,5.832288162666373,1.8980684045610245,43.49451326392591,43.756057789988475
7.565966548398137,1.243166220687647,0.7409436463640304,0.3343831590307955,5.898446469916962,0.8581343641009983,10.985328440088779,121.07097180700056,5.99575419240864,1.9202693170293637,45.73699566628784,44.51368749439647
7.825490231625736,1.2652818537624766,0.7605381570319878,0.3451983005977116,6.0993683222914115,0.892071211584167,10.984365517855622,121.07558559695893,6.158187321096193,1.9450465706419584,47.979872395750135,45.292933710737366
8.08407033723779,1.2870018275935569,0.780625753744971,0.3560328596516153,6.299741986906156,0.9261370486115483,10.983427279279567,121.08018069159077,6.3196235408540815,1.9698747815496271,50.22313803387806,46.09223570742075
8.341547180898488,1.308319421450111,0.8011891405913047,0.3666987391088305,6.499554306501523,0.959727620761643,10.982514216681011,121.08486576730202,6.480001116171479,1.9992940282014806,52.466785442084074,46.91182276167838
8.59831246198155,1.329359886602703,0.8222123169980478,0.37737228499421593,6.698792556067929,0.9933691629579235,10.981627022032626,121.08946528725106,6.639485186431557,2.0245081295541367,54.7108113123104,47.7486086757148
8.85223279776983,1.3496112475087383,0.8436800854688045,0.3880296373647289,6.897444593021646,1.0269700264150263,10.98076598404441,121.0941776559036,6.797091700369492,2.056431967896839,56.955205705948174,48.60407072138155
9.10254921275191,1.3688979598849857,0.865578177763382,0.3984512165486306,7.09549873508513,1.059840242899215,10.979931751964614,121.09880423932374,6.951949362992309,2.0836402539998726,59.19996607862413,49.474822318904586
9.352973761968315,1.3881868715582737,0.8878933613013942,0.40907836334092634,7.292943612439558,1.0933264794361934,10.979124249774031,121.1034417597874,7.10547860735096,2.1137771897539257,61.445082758553326,50.361229574120735
9.601719303289428,1.4070611596144358,0.9106127290579025,0.4197505827594069,7.48976852488704,1.1269201579732548,10.978343988768756,121.1081620699027,7.257496292819269,2.147904081103771,63.6905491668731,51.26343035931151
9.849473494337872,1.4257068704800762,0.9337242286710534,0.4303705851725377,7.685963081428781,1.1603134134621849,10.977591492817737,121.1128355342551,7.408254819340073,2.178910084218563,65.93636125605553,52.1789280159496
10.09459899761714,1.4437130116171295,0.9572165331046563,0.44107725223069205,7.881517213536426,1.1939220517762237,10.976866960176267,121.11757157227322,7.557061807601713,2.2137604347966344,68.18251004815102,53.10847836151491
10.338946440955624,1.461551450461581,0.9810787788592279,0.4517786094873845,8.076421298785135,1.2274576417089345,10.97617080679629,121.1222787869255,7.704496571444906,2.246742179075588,70.42899067234248,54.0501304690246
10.580595165723935,1.478743867325364,1.0053007265960332,0.46236075120748427,8.27066599437967,1.2605707596330762,10.975503236870281,121.12703480747383,7.84988855139818,2.2826837325066123,72.67579467967153,55.004321598313844
10.823199713602662,1.4961987016118303,1.0298727311601397,0.472880171651712,8.464242209680378,1.2934305907814383,10.974864570889622,121.13181359846656,7.99472992203664,2.3188951068314734,74.92291653063148,55.97006887598065
11.061665181070566,1.5126087507838248,1.0547855592740234,0.48340403132866583,8.65714119351469,1.3262364911347844,10.974255254957825,121.13652186394994,8.137219433439896,2.352193122779666,77.1703492384404,56.94543672367494
11.299038182245567,1.5286726979982375,1.0800303526048083,0.49396396059517267,8.849354536505416,1.3590794635553176,10.973675202694722,121.14130166411859,8.277979924692772,2.390537835788907,79.41808281838894,57.93195494125258
11.5374642603565,1.5448742504948336,1.1055986312858295,0.5047447379392246,9.040874134283513,1.3925045795197073,10.973124866606668,121.14612655521469,8.41839580971282,2.4295769588531146,81.66611225903034,58.9287179559008
11.77317876345478,1.5602368837247287,1.131482153548859,0.5155581575226402,9.231692298315465,1.4259460002259472,10.972604729235172,121.15088315828615,8.55727706826292,2.4649755515028526,83.9144311286509,59.9335329985593
12.008710175286978,1.5753550104380987,1.157673175825039,0.5262536023220619,9.42180146719329,1.458958267334746,10.972114766715094,121.15566862192188,8.695293081575073,2.5035339224311235,86.16302899550647,60.947409387002686
12.246804834110662,1.5909750887268364,1.1841643902880605,0.5369227140373115,9.61119421524927,1.4918132284343026,10.971655481960624,121.16054957411023,8.83415193296969,2.545776569473938,88.4118988411501,61.97093479873141
12.48005118733272,1.6054012895356322,1.2109487248235382,0.5477924599533248,9.79986342578195,1.5251731022460666,10.971227762289345,121.16534244594928,8.971002038335428,2.5824210806074763,90.66103539057076,63.00085501369533
12.710622461512685,1.619259742604637,1.2380192386626732,0.5584985725187767,9.987802390009165,1.5579743485573927,10.97083133785054,121.17018105904742,9.105504340142943,2.623074715836993,92.91042732354254,64.03887137652907
12.944774307310581,1.6341596644269374,1.2653695122280624,0.5691560988742531,10.17500433861278,1.590555088013359,10.970466425525956,121.17503676430685,9.240617373143323,2.663946914683541,95.16006825026125,65.08416632322042
13.172971321735531,1.6478878218726432,1.2929932977131102,0.579930712165929,10.361462795641273,1.6233934573546778,10.970133646507747,121.17986556956608,9.373052846523933,2.703568254588711,97.40994989220053,66.13569306222914
13.397836786229163,1.660998394629116,1.3208844774053432,0.5906911224674377,10.547171639278531,1.6561111196457394,10.96983279590495,121.18474275379072,9.502478439011611,2.745999771821983,99.6600631531328,67.19433083712923
13.621111724991351,1.6738095242791684,1.3490372453525197,0.6015707802138809,10.732124834088609,1.6890891614244978,10.9695638299454,121.18968815471634,9.62959870020859,2.7901309403621326,101.91040174011141,68.26009079007544
13.849976819008589,1.6879210419218391,1.3774459255801048,0.6124901524699646,10.916316657559946,1.7220999249651059,10.96932677575387,121.19466703147155,9.758356379228644,2.833645850814341,104.16095993481576,69.33211574796842
14.078546037431806,1.7018490925060212,1.4061050950549543,0.6235015559206737,11.099741507321596,1.7552909161537589,10.969122402719222,121.19957993156602,9.887779962853529,2.8736080484453836,106.41172969527543,70.4085012581882
14.303984489757568,1.7148647064564704,1.4350094903784338,0.6342748476114776,11.282394010340795,1.7877362189616868,10.968951067887247,121.20445757055177,10.015966425067745,2.914131967049393,108.66269934736192,71.48949311410598
14.520847270265222,1.7257810358967813,1.464154223096557,0.6452969118555705,11.464268665993586,1.8208018732917177,10.968812951701693,121.20931945842352,10.139242053846829,2.95575365597553,110.91385879740119,72.5751688379157
14.742340911179781,1.7377825557943318,1.4935342890385073,0.656304812479175,11.64536059438251,1.8537529260032586,10.96870737359859,121.21436625424123,10.262373478966765,3.0053002457920597,113.16519957780838,73.66863687266591
14.962425416335464,1.7495980456417293,1.5231450009450782,0.6674494940851948,11.825664832489565,1.8870081122291942,10.968635270255618,121.2193807707515,10.384724204195663,3.0489440460570885,115.41671941056848,74.76603059206333
15.18084729788825,1.7612851069925843,1.5529817413480487,0.6784453466816049,12.005176727892831,1.9197816336643372,10.968596437596716,121.22439336106798,10.505849287495948,3.0925070492117293,117.66840808279812,75.8676532901063
15.394530809018761,1.7722223157923407,1.5830401963321492,0.6895849806772412,12.183891500812024,1.952878930557601,10.968590965145268,121.22935365953182,10.623988605337217,3.134393058446376,119.92025657370687,76.97245606932778
15.610176770016551,1.7838798802906168,1.613316031114664,0.7005319965508129,12.361804811051115,1.9853842444645085,10.968618368264288,121.23441856176086,10.74161269958131,3.181830128374443,122.17225454747677,78.08292012899015
15.82409245800227,1.7953327009372104,1.6438052225275896,0.7116984487105603,12.538912129122764,2.018418803374408,10.96867930633016,121.23959695623681,10.858110718196258,3.2311404621850968,124.42439682595432,79.19900941782349
16.030927933752537,1.8052854444887938,1.6745036563952453,0.7228969239625149,12.715209475252777,2.0514745374955528,10.968774018343538,121.24470009426956,10.970502365613356,3.274184610210311,126.67667851410806,80.31731303558959
16.243225620593876,1.816472863208547,1.7054074388579465,0.7342780473711307,12.890692829620093,2.0849556022904987,10.96890132210683,121.24979653073824,11.083568823174573,3.318349700109027,128.92908863723278,81.43885990313723
16.453896017745137,1.827243101949101,1.7365127165685408,0.7453348350218609,13.065358467865735,2.117510185973085,10.96906182996463,121.25497273015063,11.196156165446155,3.3661256810913183,131.18161770515144,82.56498968912325
16.661852287128568,1.837378137969312,1.7678159960196353,0.756707765979769,13.239202248398215,2.150845261122239,10.969256054842845,121.26010717400561,11.307144216494635,3.410540749366624,133.4342594910413,83.69344388107437
16.866627167910337,1.8468187461215875,1.7993135748547502,0.7681159892400644,13.412220851518214,2.184214519039025,10.969483647611924,121.26530895185631,11.415739399846643,3.458230275565397,135.68700355663896,84.82598749684527
17.06934374338016,1.8558613937536863,1.8310019884957,0.7795018326791743,13.584410777781159,2.21746823594694,10.969744567410089,121.27047245221144,11.522106697200797,3.5030450215403,137.9398437421769,85.96064145431957
17.27451974945143,1.865552005789346,1.8628778963466175,0.7907236426321783,13.7557685803622,2.2502400938054903,10.970038299798034,121.2757330020907,11.628587595419958,3.552145064489405,140.19276992045343,87.09965691898427
17.474977941717952,1.8743470656195906,1.8949381132260896,0.8022649787421087,13.926290770526975,2.283791185277806,10.970365552930161,121.28108393939475,11.732764445361681,3.602199193076003,142.44577650912106,88.24278691790956
17.680251692887396,1.8843204751603264,1.9271793207735755,0.8138140357183985,14.095974531490356,2.317310438878523,10.970726094790734,121.28635543324565,11.8381952237105,3.64657338918272,144.69885809719563,89.38691861287822
17.8803479061462,1.8932707557909718,1.9595984279294498,0.8251991077734802,14.264816800132394,2.350359066067136,10.971120102214627,121.29170003986897,11.94166249060072,3.695130630636657,146.95200219377875,90.53464840048935
18.0786959878169,1.9019201916712876,1.992192501493264,0.8366148349183185,14.432814411818981,2.3834410404727584,10.971547697554342,121.29703140959015,12.043272511218674,3.7417707161767844,149.20520268566906,91.68433700956105
18.27570774545893,1.9103372118248896,2.0249585974379443,0.8479674855481248,14.599964540917426,2.4163194755584962,10.97200848464854,121.30238383747427,12.143284442601725,3.7892594785174127,151.458450242877,92.83650001549447
18.468707563355565,1.9179424486843324,2.057893886754755,0.8595020702260036,14.7662643478252,2.4496180117573196,10.972502380493097,121.30771154876601,12.24049026099965,3.8354590277143266,153.71173686161637,93.99022802608953
18.667224335018545,1.9268525732576032,2.090995507722255,0.871019381459053,14.931711400393397,2.4828327024994534,10.973028738284484,121.31311749705998,12.339050587266684,3.8850209042306094,155.96505314670503,95.1472775247444
18.85840617166832,1.934403559197711,2.1242607526364736,0.882609322017042,15.096303119324148,2.516191361395219,10.9735885434784,121.31855488349767,12.434619992040098,3.9339042656395535,158.21839258633554,96.30671401788742
19.05664525507018,1.9437497899281175,2.1576869435957633,0.8942742902855443,15.260037132073194,2.5497003033192827,10.974181134602986,121.32391980191755,12.532221985398792,3.9791189803541553,160.4717478211969,97.46659155236526
19.252171551343054,1.9528984730365524,2.1912714657373726,0.9060199677150803,15.422911177389324,2.5833739160721034,10.974807046703063,121.32941351512684,12.629483469296247,4.030491034809635,162.72510651685297,98.63045970828561
19.43473202176392,1.9597239573101366,2.225011763977818,0.9173463062573085,15.58492309274152,2.6159781423324,10.975467046489939,121.33487909993184,12.720091645605862,4.0780855158091285,164.9784642327577,99.79539897910297
19.62341604521498,1.9681911584708023,2.2589055403950624,0.929004762672186,15.746070128399879,2.649370934587483,10.976159031852148,121.34029121126524,12.810434899758548,4.1239374990347155,167.2318121958524,100.96089356680733
19.809314584359527,1.9763258073490788,2.292950256727636,0.940787539439972,15.906350630801171,2.683038339387032,10.976883003953844,121.34588723406493,12.899253103183582,4.177512869381141,169.4851397871971,102.1311804831634
19.990520518738776,1.983628239832383,2.32714351254981,0.9523231830178969,16.065762773156166,2.716075919298617,10.977639506338164,121.35138268574602,12.984962860820815,4.223438945332855,171.7384451031685,103.30101265946719
20.171231427695602,1.990875068200672,2.3614831033046357,0.9640648795428132,16.224304277449846,2.749588471617428,10.978427061345428,121.35690180046592,13.068871310679242,4.271750916229503,173.99171631783247,104.4726040689056
20.35395648283884,1.9985204098483385,2.3959667030139826,0.9759910855572,16.38197359163314,2.783521183581044,10.979245575261302,121.36248164784357,13.152886860305443,4.321952676471098,176.24494616873562,105.64656976980775
20.538693563081324,2.0066022025423536,2.4305920458282344,0.9876932583409014,16.538769233506173,2.816892296063981,10.98009550315328,121.36807354003851,13.237962827086449,4.3710792772420355,178.49812823720276,106.821956709669
20.7270130882971,2.0155068180147717,2.465357063629199,0.9994927438936309,16.69468919513747,2.8504755829069404,10.980977292987518,121.37367237418252,13.325361198745668,4.419870462170633,180.75125394389033,107.9986141349488
20.904867727309465,2.0223898074062725,2.5002596162375994,1.011342867685026,16.849732017610222,2.884159830767963,10.981891877949238,121.37928922787526,13.408689509844407,4.46904553188213,183.00431402213871,109.17668803806274
21.07844523852691,2.0285882672802056,2.5352976266876794,1.0232423154625556,17.0038962517865,2.9179426180321366,10.982838237076066,121.38500848388405,13.487845600349829,4.5211237278589715,185.25730113498867,110.35767883392894
21.255291774403304,2.035697441049996,2.570469059224706,1.034847703734864,17.157180529553443,2.9510170110300655,10.98381556244567,121.39075275473154,13.566551619907841,4.571425076002228,187.5102113932371,111.54011062659625
21.429349928162992,2.042416565038942,2.6057720432872884,1.0467888775453555,17.3095830231905,2.98486563904949,10.98482373333536,121.396508930722,13.643640039954334,4.620947859683961,189.76303722150624,112.72369412564156
21.6063551469706,2.0498302351419473,2.6412045272882096,1.0589198263128263,17.461102940142155,3.019142605962678,10.98586233961396,121.40224396944893,13.721394979860634,4.669279560421543,192.0157708954066,113.90777824490033
21.777007270604372,2.055957515088928,2.676764549629297,1.0708752687118561,17.61173935001716,3.052998476223689,10.986931672669016,121.40806577614575,13.796308591030538,4.720864655935375,194.2684029955417,115.09431216629564
21.946047828998417,2.0616760269545034,2.7124503148370422,1.0826563818559645,17.7614908227697,3.086441482889101,10.988031360320747,121.41381936682849,13.868997919606045,4.7683307518515265,196.52092901989818,116.2803869247534
22.112408697605133,2.0667261687471994,2.748260059801396,1.094656724640094,17.910355980042368,3.1203810473365574,10.989160395110957,121.41968164463434,13.939237519400194,4.820472335234103,198.77333866804838,117.46924728442251
22.279600703623146,2.071922389064715,2.784191925136838,1.106563799327543,18.05833414150402,3.1540995477039555,10.990318680880591,121.42550302249039,14.008670315379277,4.869060571411122,201.02562838606536,118.65807639831229
