coupler,coupler,$D^a [mM]$,$D^a [mM]$,$I_{islet}^a\ [pg/islet]$,$I_{islet}^a\ [pg/islet]$,$\gamma^b$,$\gamma^b$,$I_{cell}^b [pg/islet]$,$I_{cell}^b [pg/islet]$,$G^b [mM]$,$G^b [mM]$
2.696762793639209,1.0730048205154203,0.5037754067016067,0.07089528026530824,2.354414219793398,0.14212841315730362,11.004381649428979,120.98944344163738,2.4585235615086276,15.445786425219435,5.436810191196855,35.35631406096604
2.9783703784341924,0.9652048359494774,0.5099343338224571,0.10013148116998122,2.6869134008302353,0.18238668290354457,11.005862787831575,120.99398100543745,2.7954451626865193,10.962035688999071,7.672454509825911,35.559699099806906
3.2582498947158456,0.925651765543086,0.5180373165203491,0.12310014900952079,3.003505904751364,0.20812512778453163,11.00595323217567,120.99847224312673,3.0467705142800696,7.960714159984295,9.907762427232228,35.80499908167055
3.536624928470701,0.914542032935534,0.5277840857888805,0.14273753736860703,3.3084735710872337,0.22693300127154917,11.00538401317317,121.00287096646733,3.2377412050263956,6.03148598238364,12.143138489685953,36.091152531439626
3.8134227318223566,0.9190632056144185,0.538959955520113,0.15995785772346072,3.6047979037975892,0.2406842662408391,11.004507242818363,121.00738635933416,3.385990158538334,4.87213331485868,14.37877751304768,36.4178228801616
4.090087610296905,0.9329006689566036,0.5514046251337277,0.17580638575281057,3.8950035382295027,0.25300819650049317,11.003491454292089,121.01190642749762,3.5042867928859778,4.236218185276785,16.614780207397416,36.78358724092567
4.365623693098314,0.9523242320378469,0.5649947026104201,0.19081050597117688,4.180562272667885,0.2651021803905139,11.002416324452497,121.01637717618364,3.601267402875237,3.922801429244593,18.851193374954164,37.18701468913032
4.6396248346427456,0.9749470219837941,0.5796312585007399,0.20528939345714378,4.462385073420592,0.27740086538991543,11.001318919006735,121.0209066751592,3.6828538987901993,3.787992314663667,21.088037566049024,37.627407961413994
4.910768695524894,0.9990674564296593,0.5952325507969363,0.21876443943476587,4.740714963641949,0.28600712437632175,11.000216206419282,121.0255161435002,3.7527941893204115,3.7426793428194807,23.325325410580263,38.10367618386768
5.180565510760061,1.0239848039092672,0.6117291721311631,0.23197919210960422,5.016176676377654,0.2960571249153754,10.99911562539637,121.03005417113135,3.814164446957875,3.737455767418115,25.56306460336782,38.613575471021086
5.450484990957193,1.0494847382358374,0.6290611740987515,0.24472046114805124,5.28965000633616,0.30480566764964817,10.998020114260726,121.03455383855734,3.8695586494286545,3.750463589949416,27.80125446897,39.15592840701998
5.718994796741754,1.0749883385175463,0.6471784464520169,0.25736861223568447,5.561292282654904,0.3148072199319089,10.996930841472931,121.03909527793171,3.920332893030718,3.7725606115654924,30.039893973618746,39.72996551593352
5.9859256179770455,1.1002263054613335,0.6660362485272344,0.2695500473032258,5.831163962953724,0.32237007992275246,10.995848269551061,121.0437173124121,3.9673856812296435,3.7996511407701576,32.27898431383073,40.33469478769778
6.251774207456037,1.1251552549532644,0.6855950501776533,0.28162893007073436,6.099457223317586,0.33081979950435886,10.994772566016763,121.04836391654487,4.011494952253997,3.829239604502038,34.51852771313861,40.96836058323953
6.51723722810857,1.1498484244351632,0.7058191120013362,0.29358361086368756,6.366516501875594,0.33920830160552545,10.99370375147555,121.05290741859206,4.053414197056554,3.8596700339821193,36.75852408306673,41.62849765454071
6.781154379015788,1.173973071852034,0.726676880280138,0.3054216132277506,6.632235550321639,0.3473139948048364,10.99264175456483,121.05744983681976,4.093322765955236,3.893000458307944,38.99896852392703,42.31471476477423
7.044685694621876,1.1977520637776833,0.7481393095949898,0.3171135127657089,6.896888677263632,0.35475279745036137,10.991586714750156,121.06201313461088,4.1316943694255315,3.929462378826088,41.23985977098346,43.02597483707394
7.305347939953208,1.2205834039951482,0.7701803909876617,0.32848818425679893,7.159923528553918,0.36014241828755955,10.990538837271743,121.0666085766346,4.168115671200212,3.9691366682112683,43.4811972011812,43.761190243633926
7.565966548398137,1.243166220687647,0.7927751619426999,0.3398749343313772,7.421801574295387,0.3669739166985925,10.989498303970322,121.07117861426785,4.203144984785467,4.011310406158233,45.72298065247014,44.51858382826451
7.825490231625736,1.2652818537624766,0.8159011480456684,0.3514942520287731,7.682531095808372,0.37627898712621727,10.988465282251127,121.0758294633039,4.236857746145688,4.0575223980411845,47.965207669883966,45.29818938965919
8.08407033723779,1.2870018275935569,0.8395374505489599,0.3630072083783612,7.9421638587955385,0.38373460376717944,10.987440097029321,121.08042235790042,4.269352241652086,4.105710980419385,50.20787958614528,46.09736915884852
8.341547180898488,1.308319421450111,0.8636651446577162,0.37424808849757646,8.200688520912081,0.38858662760765716,10.986422898015007,121.08504282589423,4.3006493233842775,4.15740226168549,52.45099257258698,46.91606301196778
8.59831246198155,1.329359886602703,0.8882666240388062,0.3854525355517978,8.458214996615425,0.3940637657627635,10.985413988819346,121.08974080916134,4.330881214584224,4.212875690046713,54.69454586971551,47.75389353159472
8.85223279776983,1.3496112475087383,0.9133253526815679,0.3967453654852544,8.714180675102398,0.40087631669413465,10.984413726720959,121.09440695184173,4.359500480408315,4.270437939399689,56.93854038789868,48.60858715369115
9.10254921275191,1.3688979598849857,0.9388248366303742,0.4080040750983887,8.967964453389868,0.4070853367341057,10.9834222542122,121.09911813155311,4.385896192514338,4.331301447868887,59.182973138056695,49.48020643131433
9.352973761968315,1.3881868715582737,0.9647487432521302,0.4194318021175005,9.220245480537415,0.41482657743102763,10.982439774903469,121.10379633879185,4.410754410608206,4.394265609935188,61.427844032645226,50.366900086841945
9.601719303289428,1.4070611596144358,0.9910826894629281,0.4307195201150429,9.47096346388571,0.42025624630450426,10.981466452474706,121.10848353418803,4.434019235719461,4.460029092790975,63.67314991727471,51.268401727911225
9.849473494337872,1.4257068704800762,1.0178133150038775,0.4421954756691326,9.720282672671601,0.4276463723943629,10.98050252883695,121.11317458309594,4.455857931636274,4.528347318709691,65.91888912953436,52.18387694641644
10.09459899761714,1.4437130116171295,1.0449279790918808,0.4535231746067797,9.967827340355143,0.43260924249269733,10.979548242292367,121.11781851361494,4.475896432879381,4.598560471651957,68.16505969502032,53.11190258623533
10.338946440955624,1.461551450461581,1.0724144691193942,0.4649829232309645,10.21388974506408,0.4390670745008198,10.978603730676696,121.12262206907083,4.494428140751552,4.673025921953325,70.41165785025805,54.05465881446223
10.580595165723935,1.478743867325364,1.1002614093886223,0.4763161217807256,10.458098681876436,0.4435784299162152,10.977669433574192,121.12746361442801,4.511082353710663,4.749344943188926,72.65868716873229,55.009809513834256
10.823199713602662,1.4961987016118303,1.1284577049664222,0.48779948293622005,10.701290798839182,0.4498581747753029,10.976745498599485,121.13218648121037,4.5266958339489065,4.8260062527119505,74.9061468243599,55.97450472503969
11.061665181070566,1.5126087507838248,1.1569937704189215,0.4990618979116219,10.942523661768064,0.4531189310778206,10.97583199699875,121.13696632955413,4.540325865033083,4.905660449389341,77.1540300231427,56.950699152838894
11.299038182245567,1.5286726979982375,1.1858594837540295,0.5107028289210038,11.182051584590226,0.4610439129506884,10.974929214804433,121.14178581450861,4.5522267403430305,4.987513211615231,79.40233658999205,57.93760085571136
11.5374642603565,1.5448742504948336,1.2150451341585722,0.5223663791062887,11.420696780551225,0.4675339875357193,10.974037377745844,121.14664049320488,4.563220133655705,5.071284420411144,81.65106555446982,58.93463469228388
11.77317876345478,1.5602368837247287,1.2445428706996609,0.5335981852403067,11.657905439613387,0.4684375084375114,10.9731567815179,121.15139876449686,4.572751849540509,5.155567646129998,83.90021547395736,59.93934005633723
12.008710175286978,1.5753550104380987,1.2743446969252545,0.5450236409888813,11.89404836972244,0.47311472149931405,10.972287499462254,121.1562212365688,4.581192537560128,5.242489413132468,86.14978026039898,60.953694706000455
12.246804834110662,1.5909750887268364,1.304442959575681,0.5566735299717446,12.130209566792473,0.47997801864825534,10.9714299144689,121.16109081423737,4.589625745255034,5.3312830711216295,88.39975948818028,61.97700957768345
12.48005118733272,1.6054012895356322,1.3348317407944705,0.5683778129528465,12.364924551686272,0.4860803972169104,10.970584447262809,121.1659609575826,4.596586495521478,5.421296828252767,90.6501517156139,63.00815868546193
12.710622461512685,1.619259742604637,1.3655037419812288,0.5799482749467875,12.597820218652487,0.48971642813311345,10.969751285156235,121.170773372744,4.601701323525049,5.512079233712136,92.90095406770706,64.04584875858791
12.944774307310581,1.6341596644269374,1.3964516096166335,0.5914665479426633,12.830512133892626,0.4929451730693943,10.968930516391993,121.17575509276345,4.606585576781072,5.605972886990582,95.15216160938144,65.09329855583591
13.172971321735531,1.6478878218726432,1.4276700658083428,0.6029237562728504,13.061270786914974,0.4958153935802428,10.968122730962932,121.18066478117657,4.60950953460997,5.699831467469724,97.40377723798156,66.14633262416675
13.397836786229163,1.660998394629116,1.4591520662943367,0.6144378922312889,13.28967262385413,0.4997603784624167,10.967327920137905,121.1856367747258,4.6100492856348865,5.795496772163322,99.65579533111304,67.20678335276664
13.621111724991351,1.6738095242791684,1.49089031983749,0.6260028040429153,13.515943706035614,0.5041219392325473,10.966546281706542,121.19056938983273,4.608430570864584,5.891721493191187,101.90821529179811,68.27270936272463
13.849976819008589,1.6879210419218391,1.5228781066543888,0.6378041089032614,13.742396640125662,0.5107557091332567,10.965777871198952,121.19549513127653,4.6069656342151575,5.989058203191869,104.16103268787265,69.34435623559644
14.078546037431806,1.7018490925060212,1.5551113840483595,0.6496310288925681,13.968884710222483,0.5161348936903644,10.96502309141215,121.20040255781228,4.605507366009988,6.08737304652285,106.41424363292754,70.42126639849036
14.303984489757568,1.7148647064564704,1.5875862248358317,0.6614711053917922,14.194454729091376,0.5207442021328936,10.964282307191752,121.20540043960777,4.603102447872516,6.187563630231128,108.6678437255323,71.50497424718093
14.520847270265222,1.7257810358967813,1.620297814894002,0.6732796188933506,14.416806078050286,0.5244336968029678,10.963555922266096,121.2104708128023,4.5974502130411565,6.288976395554637,110.92183273471892,72.59493811194834
14.742340911179781,1.7377825557943318,1.653239149309229,0.6852476168516957,14.63829036662355,0.5298100658683208,10.962844004738145,121.21542302645086,4.590902165451553,6.389911222029083,113.17621021345258,73.68775859896965
14.962425416335464,1.7495980456417293,1.686405771644786,0.6972665918476803,14.85874201823026,0.5347640887860958,10.962146625854075,121.22045448613628,4.583292365947273,6.492633808809235,115.43096816539764,74.78653249263235
15.18084729788825,1.7612851069925843,1.7197932836716063,0.7092851109497311,15.077969116624445,0.5388977638644088,10.961464196094312,121.22545338304721,4.574428863765206,6.595755941498801,117.68610577471554,75.8891717827617
15.394530809018761,1.7722223157923407,1.7533972573583014,0.7213615107066154,15.294914663769305,0.5432767394562996,10.960796889732592,121.23043625877438,4.563254588225391,6.699603951690228,119.94161815568805,76.99576807843194
15.610176770016551,1.7838798802906168,1.7872123515116982,0.7336183039013577,15.510849155019969,0.5491770989130038,10.960144828306511,121.23550975855598,4.55103998281993,6.804962806913236,122.19750115647912,78.10795594492973
15.82409245800227,1.7953327009372104,1.8212345748324879,0.7456384541801647,15.725554351694882,0.5509505526728795,10.959508403087966,121.24058339214378,4.537566675338894,6.9107390929040315,124.45375421084464,79.22401330658043
16.030927933752537,1.8052854444887938,1.8554600428324193,0.7576776480056316,15.937272266950458,0.5536221031672119,10.95888781757094,121.24567456104057,4.521076832199469,7.017202708164626,126.71037335507572,80.34407769766239
16.243225620593876,1.816472863208547,1.8898831941769458,0.7697346197866105,16.148535338696092,0.5566762242721012,10.958283132174984,121.25078524240553,4.504102823091671,7.124339425238854,128.96735573746264,81.46803331770958
16.453896017745137,1.827243101949101,1.9245009880396537,0.7817914712870441,16.358989533036947,0.5596855044335015,10.95769468403887,121.25583992453389,4.486290540196933,7.231609600445225,131.22469780780375,82.5944283462604
16.661852287128568,1.837378137969312,1.959310162870679,0.7938308345961497,16.568061057012528,0.56243905403252,10.95712268864736,121.26098417913454,4.467066168203019,7.340247875305991,133.48239325731993,83.72565620776427
16.866627167910337,1.8468187461215875,1.994307042506989,0.8061492466071821,16.775208130013198,0.5685986545241226,10.956567518529482,121.26613696217854,4.445888044894673,7.449282455650068,135.7404412496835,84.86016835724877
17.06934374338016,1.8558613937536863,2.029487472958863,0.8183463055037472,16.98038877081126,0.5716301940358016,10.956029321649112,121.27128351247373,4.42271396383876,7.558700447294139,137.99883793480694,85.99758594203801
17.27451974945143,1.865552005789346,2.0648475807975046,0.8305912886543593,17.184928684029728,0.5751202013660716,10.955508257378824,121.2764168129121,4.398869812488556,7.668532290580336,140.2575790323317,87.13767320050701
17.474977941717952,1.8743470656195906,2.100384642079007,0.843037590521205,17.387602923437953,0.5806814815743302,10.955004625488073,121.28159484508056,4.3731306730769575,7.779191034818252,142.5166594646871,88.28134075999206
17.680251692887396,1.8843204751603264,2.1360949155059643,0.8553532273883817,17.590414235834032,0.5832418911939674,10.954518683603965,121.28675105421412,4.34749926783843,7.890077833340937,144.77607656642795,89.42730743739214
17.8803479061462,1.8932707557909718,2.1719765919842757,0.8676899267541179,17.791766418144107,0.586141198667446,10.954050793661736,121.29190895068525,4.320379653887358,8.001468934975398,147.03582459315658,90.57589036191438
18.0786959878169,1.9019201916712876,2.208026482781861,0.8802024497533701,17.99157114746049,0.5910756022221721,10.953601207700558,121.29709828258869,4.291683671879582,8.113502553202764,149.29589906148612,91.72752497941669
18.27570774545893,1.9103372118248896,2.244241365871858,0.8925962206098093,18.189890342298895,0.5934098549895211,10.953170201275498,121.30219326244908,4.261473284335807,8.225331926255958,151.55629650875926,92.87988123198494
18.468707563355565,1.9179424486843324,2.2806182806380093,0.9050928147278324,18.38596448348835,0.5971448985591589,10.952757899998687,121.30730561487441,4.228989286464639,8.337912442829579,153.8170086760074,94.03488181396571
18.667224335018545,1.9268525732576032,2.3171536262962036,0.9174876520035449,18.58212084090337,0.5990340272134025,10.952364542521536,121.31254147872671,4.196559157921001,8.451617418162833,156.07803168334067,95.19434751530386
18.85840617166832,1.934403559197711,2.353845833975356,0.9301700835758774,18.776132841594517,0.6048017807706927,10.95199069159571,121.31770342676289,4.1619566872832365,8.564977354008386,158.33936476707458,96.35464182796039
19.05664525507018,1.9437497899281175,2.3906914679682814,0.9427295456302796,18.97075995290652,0.6074107213549773,10.951636389363557,121.32301843050483,4.1279411992873065,8.679583507818428,160.60100040212274,97.5197881423098
19.252171551343054,1.9528984730365524,2.427689509524498,0.9552508257781597,19.165002485271543,0.6094975087770277,10.951302293804474,121.32820362262966,4.09351344325114,8.793499115499952,162.86293861083686,98.68459434686572
19.43473202176392,1.9597239573101366,2.4648381168954074,0.9678582031553913,19.355084856506437,0.6128558649227575,10.950988553115167,121.33342305838008,4.054898028844036,8.908131675918872,165.12516910210252,99.85197528859307
19.62341604521498,1.9681911584708023,2.5021325625129975,0.9805251743266689,19.544091139920056,0.6164781365632601,10.950695257168263,121.33862124590345,4.015179310226813,9.022975144516716,167.38768865540624,101.02086992150522
19.809314584359527,1.9763258073490788,2.539570600085426,0.9932033986055706,19.73150756722316,0.6196183567974236,10.950422691064887,121.3438648644634,3.9738437268533744,9.138407660511623,169.65049110166728,102.19243331923745
19.990520518738776,1.983628239832383,2.5771496650995687,1.0059118808091354,19.91640235343948,0.6227422807060594,10.950171184027568,121.3491509003298,3.929959830304142,9.254256472862217,171.9135727211833,103.36655149055292
20.171231427695602,1.990875068200672,2.6148665536311455,1.0185952777321248,20.099382633809,0.625138942322493,10.949940946535207,121.35431453155061,3.884135003492702,9.369689677991767,174.17692994698882,104.54016802111892
20.35395648283884,1.9985204098483385,2.6527185994782485,1.03137167068313,20.28162614768371,0.6286412018130492,10.949732076143846,121.35956055307884,3.837547267146874,9.486011294829328,176.4405529331416,105.71699220293831
20.538693563081324,2.0066022025423536,2.6907040154910646,1.044168192198896,20.463956887368113,0.6317668088123435,10.949545066803694,121.36480179905088,3.791020907985512,9.602493958630745,178.70443894714117,106.89537047692532
20.7270130882971,2.0155068180147717,2.728821678843815,1.0569402479899994,20.64742272021249,0.6341405362467394,10.949380335048772,121.3701029313376,3.745604124327656,9.71948058911659,180.9685816783458,108.07644031849009
20.904867727309465,2.0223898074062725,2.7670712445979007,1.0695376462399628,20.828542958479375,0.6342283961262997,10.949238473549485,121.37537719787869,3.6978166574263014,9.836486640118668,183.23297674767673,109.25855111598305
21.07844523852691,2.0285882672802056,2.8054499294958077,1.0823288959834574,21.00673729646951,0.6378429394058639,10.949119654949754,121.38065259626934,3.647078784997575,9.953755378965795,185.4976175017655,110.44218618744358
21.255291774403304,2.035697441049996,2.8439544794964604,1.095190572554242,21.183863843325526,0.641607562685995,10.949024065979756,121.38578993507008,3.5952487436588854,10.070710954112077,187.7624983265996,111.62475014209916
21.429349928162992,2.042416565038942,2.8825830837595277,1.1079878660033553,21.35940597904846,0.6437170828593665,10.94895192538388,121.39106216299136,3.541810254508164,10.188706111167711,190.02760801650584,112.81126223460925
21.6063551469706,2.0498302351419473,2.921333645877894,1.1210283797349205,21.534722624812275,0.6489337062843821,10.948903739219531,121.39631999212786,3.4881229007733054,10.306712407486051,192.29294536449015,113.99891307758227
21.777007270604372,2.055957515088928,2.960204947157763,1.134036528496339,21.70797536149621,0.6521637998305323,10.948879891540855,121.40155727377854,3.432348373986315,10.42482796652997,194.55850324593484,115.18755559772403
21.946047828998417,2.0616760269545034,2.999194646370597,1.1469884739669183,21.879299492109567,0.6540916948109572,10.948880638810806,121.40675678902949,3.3746225369977765,10.543042688305258,196.8242746759206,116.37684688722592
22.112408697605133,2.0667261687471994,3.0383005223120563,1.160140346272022,22.04846930038184,0.6586486266409277,10.948906254954636,121.41199469572402,3.3147202631807886,10.661672102218358,199.09025195240974,117.56818048035774
22.279600703623146,2.071922389064715,3.0775201724027283,1.173170645866658,22.216380402911454,0.6603604117067664,10.94895708723925,121.41728071961937,3.253537456446793,10.780621450238645,201.35643007047474,118.76170924294429
