coupler,coupler,$D^a [mM]$,$D^a [mM]$,$I_{islet}^a\ [pg/islet]$,$I_{islet}^a\ [pg/islet]$,$\gamma^b$,$\gamma^b$,$I_{cell}^b [pg/islet]$,$I_{cell}^b [pg/islet]$,$G^b [mM]$,$G^b [mM]$
2.696762793639209,1.0730048205154203,0.5037754067016067,0.07098841751468594,2.5989489148487337,0.14168039820554587,11.004381649428979,120.98939280287068,2.424489385448396,17.650505505031713,5.436810191196855,35.3562636504518
2.9783703784341924,0.9652048359494774,0.5113988263037754,0.1000751826174129,2.944003897428047,0.162692989862022,11.006730833789334,120.99386530449185,2.7420856482931413,14.27929520933187,7.672462085960433,35.55958481817713
3.2582498947158456,0.925651765543086,0.5208629536500666,0.12309901819730595,3.2368756145006046,0.1750307119110279,11.007816124008968,120.99840228551774,2.9738686177297495,11.70852192861341,9.90754182683304,35.80507705031366
3.536624928470701,0.914542032935534,0.5317288249789272,0.14275602229950354,3.5180966061307117,0.18357561742253828,11.008120624814183,121.0028485885726,3.136723985662684,9.795612512101696,12.142423174576834,36.09150104278246
3.8134227318223566,0.9190632056144185,0.5438267174031353,0.1601087735619239,3.7957176951458678,0.1900549873077049,11.00794651475735,121.00731163429742,3.244131182669662,8.420677060928073,14.377336611156352,36.41815192485571
4.090087610296905,0.9329006689566036,0.5570480560854776,0.17610940174195158,4.072505462681875,0.19747402937451117,11.007481938228011,121.01180260184057,3.3071536097559147,7.476085111870791,16.61242968123406,36.7840103657898
4.365623693098314,0.9523242320378469,0.571310150437057,0.19121720007650483,4.348217181744985,0.20527153186438743,11.00684324617032,121.01638167715741,3.3344370701233856,6.862627425519703,18.847795566078275,37.188229020421
4.6396248346427456,0.9749470219837941,0.586540714968578,0.20551534892904041,4.62247987522278,0.21181580923340604,11.006101832957938,121.02073584176117,3.3328133553732187,6.488717942982205,21.083495270693675,37.62793873814849
4.910768695524894,0.9990674564296593,0.6026756616629427,0.21915764342437444,4.89416149945464,0.21785761880631033,11.005300768068992,121.02517427006252,3.307481076219119,6.281258517492758,23.319556964095682,38.10347607487797
5.180565510760061,1.0239848039092672,0.6196550364984432,0.2324938066121844,5.164244209066965,0.2254398626826269,11.004466106765904,121.02974062711036,3.262900047877338,6.182604382063366,25.55600673216395,38.613892271333604
5.450484990957193,1.0494847382358374,0.6374283688346623,0.24565984550567402,5.434100572369061,0.23347839729378542,11.003613295266405,121.03425419927328,3.2029310726211406,6.150788464249531,27.79286384722218,39.156667593364595
5.718994796741754,1.0749883385175463,0.6559544697083766,0.2585312148372865,5.702779540908523,0.23983275220912198,11.002751178573817,121.03878659112415,3.130355599161703,6.159721285656508,30.03013573633507,39.73094444092947
5.9859256179770455,1.1002263054613335,0.6751939510140801,0.2709864879647534,5.969955691485666,0.24424608505348977,11.001884892699309,121.04334562690914,3.0473646408645436,6.19280741416589,32.2678292025812,40.335451316751055
6.251774207456037,1.1251552549532644,0.6951104020263301,0.2832624165491798,6.235961559577845,0.2501282521646599,11.001017368980683,121.04785916538904,2.9558101028378587,6.239767433622767,34.50594931747764,40.96824761234611
6.51723722810857,1.1498484244351632,0.7156712179566966,0.2953055190366327,6.501421223161742,0.25501394220031576,11.000150252482854,121.05238697318002,2.857312655134592,6.295483135869537,36.74449723493308,41.6285284021344
6.781154379015788,1.173973071852034,0.736848296757671,0.30703133421819767,6.765531443757936,0.2584290115675602,10.9992846356472,121.05691806302846,2.7529367285605986,6.3568905032332435,38.98347535356879,42.31491639198362
7.044685694621876,1.1977520637776833,0.7586141154024517,0.3186618244232587,7.029059761902317,0.26365128628489837,10.998421301483177,121.06152246591958,2.6437657877104357,6.422881485893174,41.222885091323406,43.026865195990744
7.305347939953208,1.2205834039951482,0.7809447233012179,0.3302412678892157,7.290173284476623,0.26912430838470397,10.99756099912338,121.06617774948568,2.5301699038245715,6.4926326236757035,43.46272988058627,43.76298184018641
7.565966548398137,1.243166220687647,0.8038143937010318,0.3417577403142942,7.55076592694968,0.2741700700104105,10.996704429737292,121.07075365879004,2.413010099728126,6.5654312534751735,45.703012036159635,44.52073151511334
7.825490231625736,1.2652818537624766,0.8272031488013454,0.3532999285458513,7.810375595698133,0.279993605063593,10.995852289488539,121.07534153103944,2.2927648524928372,6.641978413279334,47.94372872589156,45.29996611648438
8.08407033723779,1.2870018275935569,0.8510914451617282,0.36491173417603134,8.06903108698316,0.28619834916241427,10.99500545707997,121.07993483202618,2.1698473108408507,6.722397286802786,50.18488010345027,46.09954658807529
8.341547180898488,1.308319421450111,0.8754611626791302,0.3763505635730665,8.326610533054918,0.28930596243444706,10.994164899806492,121.08444260163618,2.044556046486832,6.806550614425206,52.42646569572389,46.91738182054028
8.59831246198155,1.329359886602703,0.9002953835006338,0.38787286731387716,8.583403008058667,0.2951828078741069,10.993331619305536,121.08908561692284,1.9172082720324397,6.895468739823698,54.66848142165691,47.75513153832528
8.85223279776983,1.3496112475087383,0.9255784174019936,0.3991669552338391,8.837759756715968,0.29709801216049037,10.992506850743666,121.09370078377177,1.7876312205626164,6.988503470687068,56.91093082074076,48.609903228138634
9.10254921275191,1.3688979598849857,0.9512931757781189,0.4106477900139002,9.088743898784742,0.30387831191682496,10.991691760951653,121.09829439329164,1.6555347556713969,7.085833297720546,59.1538112340495,49.4808879856469
9.352973761968315,1.3881868715582737,0.9774216410296503,0.4216770091252569,9.339137866627425,0.3023864447494186,10.99088758113794,121.10282559992149,1.5214292682503583,7.187414799825383,61.397119970060885,50.36671872129349
9.601719303289428,1.4070611596144358,1.0039520349528175,0.433214926484747,9.58806846360676,0.31295927886030744,10.990095608634874,121.10746205458452,1.3853657335566822,7.293688357386803,63.64085239171982,51.26880317344432
9.849473494337872,1.4257068704800762,1.030870842630975,0.44461910672324567,9.83591136825271,0.3155425245453858,10.989317269646563,121.11205322848626,1.2475226210954133,7.404120819034512,65.88500956259668,52.18440336432318
10.09459899761714,1.4437130116171295,1.0581668652885128,0.4558889559468794,10.081431857310236,0.31757954267114885,10.988553957315162,121.11664330676474,1.1077151986974059,7.518794047530869,68.12958662863821,53.113411212171755
10.338946440955624,1.461551450461581,1.0858273239573464,0.46731576979173356,10.325863549252972,0.3233949458678896,10.987807120545767,121.12130438027822,0.9661659703269834,7.637713684878529,70.3745800089091,54.056167200083564
10.580595165723935,1.478743867325364,1.113841711281566,0.4787127088787109,10.567916767438874,0.32674248716611826,10.98707827751059,121.12589578569478,0.822668929467909,7.76049656461004,72.61998826917261,55.01007801904738
10.823199713602662,1.4961987016118303,1.1421985239430796,0.4899776987726586,10.810257247416303,0.3284069985237332,10.986368915764615,121.13059436727549,0.677790223788179,7.887299580122881,74.8658045232296,55.97707560229027
11.061665181070566,1.5126087507838248,1.1708904628758319,0.5017641255939813,11.049342274665833,0.3391063475823804,10.985680618789047,121.13526375868575,0.5309640265259077,8.017765260453814,77.11202771123499,56.95464675420655
11.299038182245567,1.5286726979982375,1.199905368994223,0.5135469064526786,11.286900740116835,0.34284479142030183,10.985014946432784,121.1398308931026,0.3823470329880365,8.151747322375508,79.35865153651685,57.941197159232125
11.5374642603565,1.5448742504948336,1.22923460896709,0.5251133267427163,11.524994858307764,0.34315974377282915,10.9843734879978,121.14448319256262,0.23249392367506516,8.2892585344799,81.60566657502204,58.93901207823983
11.77317876345478,1.5602368837247287,1.2588724498345982,0.5367952594936912,11.761025371728465,0.34795202827587685,10.983757888083346,121.1491188645887,0.08109583629084227,8.430053540471004,83.8530696472153,59.94611203271172
12.008710175286978,1.5753550104380987,1.2888098118419293,0.5483399855086324,11.996495307656005,0.34919350761619006,10.983169789542444,121.15364790506199,-0.07158851541498734,8.573994261788526,86.10085346922278,60.960700038339546
12.246804834110662,1.5909750887268364,1.3190401782630943,0.5600781616701799,12.233902364969254,0.3550214628164044,10.982610855717212,121.15816314552893,-0.22480264161276864,8.721783569585476,88.34900688193738,61.98378830320685
12.48005118733272,1.6054012895356322,1.3495600275637116,0.5715574805007145,12.467816930031404,0.3543765576524285,10.982082942966372,121.16266101912716,-0.3794232784457563,8.873854291722159,90.59752155467868,63.014939951464406
12.710622461512685,1.619259742604637,1.380359874543501,0.5831938330291012,12.698891628533602,0.3594710830349687,10.981588048744015,121.16709949757666,-0.5357168790869764,9.029477811671983,92.84638870507479,64.0531421735163
12.944774307310581,1.6341596644269374,1.4114310124132317,0.5949642772274271,12.93226161180064,0.36442411127873253,10.981128081213683,121.17162709915661,-0.6926451793624437,9.188250478458428,95.09559751395136,65.10039715391916
13.172971321735531,1.6478878218726432,1.4427711756143253,0.6064761587510089,13.161325657740235,0.363453952454038,10.98070489661768,121.17607944535744,-0.8512842739000916,9.349707515933892,97.34514176193625,66.15378195164432
13.397836786229163,1.660998394629116,1.4743709015019704,0.6184416778523284,13.386862088460475,0.3728934256811437,10.980320320813917,121.18048973845518,-1.0119701703370083,9.513637902565764,99.59500900097191,67.213533555278
13.621111724991351,1.6738095242791684,1.5062214928038884,0.6303043260779925,13.610419583972543,0.37433639705341815,10.97997618734371,121.18482661999647,-1.1746230394055601,9.679807450899741,101.8451875904575,68.27887250081932
13.849976819008589,1.6879210419218391,1.5383168511616532,0.6422600417925327,13.838052382227033,0.37835183515856613,10.979674323112704,121.18919375365533,-1.3377424777281703,9.848188785741895,104.09566421993077,69.35122248210827
14.078546037431806,1.7018490925060212,1.570657263539033,0.6540027001274553,14.066262558102608,0.37778269889526234,10.979416550137103,121.1935173817554,-1.5013049129629508,10.018517686942465,106.3464284427464,70.42913291590833
14.303984489757568,1.7148647064564704,1.6032394669600762,0.6660180512169129,14.292082593310624,0.3844716043089283,10.979204662144184,121.19786857879804,-1.6658580999064725,10.190803664015698,108.59746656566858,71.51354093900547
14.520847270265222,1.7257810358967813,1.6360568923410028,0.6780275983412235,14.510563161689788,0.3871367516387746,10.979040502686985,121.20217671230607,-1.8329287541855592,10.364813486390897,110.84876719862223,72.60306271970974
14.742340911179781,1.7377825557943318,1.669098487996962,0.6902106875467753,14.73127961391583,0.39231445312861307,10.97892596037127,121.20638954542956,-2.001096546591725,10.540388228935248,113.10031619481742,73.69663473487545
14.962425416335464,1.7495980456417293,1.70236307795858,0.7020959005508352,14.951315124053508,0.3902289486557088,10.978862870368175,121.21064532742068,-2.1704327255720273,10.717753223173014,115.35209663957357,74.79638085909944
15.18084729788825,1.7612851069925843,1.7358468610909767,0.7143497312649338,15.169883456546813,0.3982527533577926,10.978853159234859,121.21473936948914,-2.3410443985194433,10.896334765544633,117.60409615002573,75.89868492335765
15.394530809018761,1.7722223157923407,1.7695449441089295,0.7264119515974669,15.384366938378662,0.39786441219024454,10.97889864910394,121.21881451301536,-2.5136319726589136,11.076467460477378,119.85629439912736,77.00580048496559
15.610176770016551,1.7838798802906168,1.803450549079571,0.7383542749294887,15.599602598231286,0.39810788111079787,10.979001321247779,121.2228963876118,-2.687414908054052,11.25810282756593,122.10867591761053,78.11800810420436
15.82409245800227,1.7953327009372104,1.837561495078262,0.7505605370913399,15.813603721093386,0.40450139724478607,10.979163142153993,121.22689108175634,-2.8625067771645263,11.440898386749245,124.36122543551028,79.23356130759012
16.030927933752537,1.8052854444887938,1.871873666124884,0.7627805990329481,16.021693111397326,0.4071510219161502,10.979386023711413,121.23089476078226,-3.040067901602015,11.62510064236445,126.6139236818999,80.35397301235913
16.243225620593876,1.816472863208547,1.9063789926003665,0.7751103264538292,16.23296925192699,0.41110738863360313,10.979672061046585,121.23484131782426,-3.2185173803009093,11.810430462060829,128.86675475537777,81.47798214586989
16.453896017745137,1.827243101949101,1.9410778530291282,0.7874486786281701,16.44358030287549,0.41353202607718575,10.980023202602752,121.23875907024242,-3.3980078478343785,11.99694717944397,131.11969927698374,82.60595896981904
16.661852287128568,1.837378137969312,1.975967180391308,0.7996458142361278,16.651886414270848,0.4134165923606481,10.980441448627971,121.24257337281105,-3.578878099739086,12.184366392193144,133.37273842468858,83.73650055437848
16.866627167910337,1.8468187461215875,2.0110425602761097,0.8116956648369963,16.857185787986964,0.4129750960766635,10.980928779346868,121.2462157998067,-3.761491979646962,12.37248274435132,135.62585018575191,84.86832350870486
17.06934374338016,1.8558613937536863,2.046299047244247,0.8240690457211413,17.060236560646445,0.4201982087758357,10.981487173354253,121.24994606544817,-3.9459151782211848,12.562193372468585,137.87900955229998,86.00586950542953
17.27451974945143,1.865552005789346,2.08173233672278,0.8361962467041122,17.264804688747972,0.41834650855042654,10.982118917745538,121.25360283373713,-4.131295830418821,12.752710935562746,140.13220059871674,87.14621731593434
17.474977941717952,1.8743470656195906,2.1173418262042105,0.8484285957414083,17.465901461895555,0.42189286332563286,10.982826019986533,121.2571513187453,-4.318387347098906,12.943931459671203,142.38540050387383,88.28867587196015
17.680251692887396,1.8843204751603264,2.1531223897472955,0.8607199567256083,17.67015593824908,0.4248572199910753,10.983610561233945,121.26073359223469,-4.5058849806082435,13.136401620466849,144.63858489878476,89.43567378364838
17.8803479061462,1.8932707557909718,2.189074721245561,0.8730946325395937,17.870899454690516,0.4282431590429605,10.984474681667052,121.26416406585261,-4.694742715975735,13.329279033760477,146.89173363894224,90.58385350270277
18.0786959878169,1.9019201916712876,2.22519393498078,0.8856156478995274,18.069541836623102,0.43266725930024924,10.985420384793542,121.26751317452681,-4.8850371549488045,13.522947659361353,149.14481956511736,91.73440604523758
18.27570774545893,1.9103372118248896,2.261476427433081,0.89835363457362,18.2666945210658,0.4383080265209588,10.986449829186313,121.27078814016356,-5.07674627227243,13.71739970410236,151.3978174328804,92.88740146062285
18.468707563355565,1.9179424486843324,2.2979191841441207,0.9107680222270718,18.46033934922889,0.43496162338106653,10.987565203686245,121.27398281857703,-5.270386698306538,13.912568398431922,153.65070178173482,94.04267607869275
18.667224335018545,1.9268525732576032,2.3345178482704796,0.9231255345955081,18.657695698086172,0.4355737431281005,10.988768765004352,121.27708293460384,-5.4644650723203085,14.108369742377741,155.9034464005381,95.19992856076264
18.85840617166832,1.934403559197711,2.3712736561428756,0.9356006819836475,18.849926027935,0.4393278626125182,10.990062585449778,121.28017189838361,-5.660356171836611,14.305140964600836,158.15602358803153,96.360600047471
19.05664525507018,1.9437497899281175,2.408180877158884,0.9480592022766912,19.04677661182359,0.4408771588171779,10.991449052584358,121.28312349349048,-5.856280416366644,14.502222503708026,160.4084084481001,97.52238279261765
19.252171551343054,1.9528984730365524,2.445241599169094,0.9607138711553542,19.242380677256733,0.44600867589387216,10.992930117994547,121.28607500164154,-6.052767289686017,14.700305292915827,162.6605704165995,98.68770177671843
19.43473202176392,1.9597239573101366,2.482453222561162,0.9730965785908107,19.427362493705004,0.4432816189170257,10.994508054922335,121.28890818706498,-6.252289920521434,14.89871655380221,164.912483535707,99.85438197026258
19.62341604521498,1.9681911584708023,2.5198062811396085,0.985977201273384,19.615118306595832,0.45326006281722303,10.996185288997367,121.29161713727501,-6.453008037642576,15.097521531527997,167.16411752440035,101.0222989972972
19.809314584359527,1.9763258073490788,2.5573013036628254,0.9987825657869751,19.80120041500777,0.4540589665377947,10.997964033624157,121.29425922608584,-6.655230168136768,15.297027823862035,169.4154408276081,102.19246444822413
19.990520518738776,1.983628239832383,2.5949358462239616,1.011754515249003,19.983193402644247,0.4585824060099493,10.99984668660909,121.29675698569503,-6.85958347748965,15.496800030004112,171.66642348095775,103.36345082586749
20.171231427695602,1.990875068200672,2.632705516356509,1.0246232739204852,20.16397235589102,0.45861525141225595,11.001835619681515,121.29922175962426,-7.065729127032682,15.697446066300099,173.91703223995864,104.537264178237
20.35395648283884,1.9985204098483385,2.6706082745222375,1.0374250557054288,20.346119571942836,0.45902868058580026,11.003933408064768,121.30160566632453,-7.272893055924214,15.898594243836484,176.1672371290624,105.71301094358844
20.538693563081324,2.0066022025423536,2.7086439198465087,1.0502988642248972,20.530149844940752,0.4618492935417596,11.006142395548522,121.30386600274893,-7.480455401935615,16.100024707214445,178.41700559668243,106.88989523715988
20.7270130882971,2.0155068180147717,2.7468125838204287,1.0629614890969368,20.717422501184046,0.4598587138155475,11.008464746060781,121.30607869445446,-7.687605058425106,16.302176866128878,180.66630271822214,108.06928320861661
20.904867727309465,2.0223898074062725,2.7851154667441733,1.0758148358923731,20.896971464622766,0.46466950777555266,11.010902660898864,121.30806413256435,-7.896501390030608,16.504029400800846,182.91509557887912,109.2478727203933
21.07844523852691,2.0285882672802056,2.823545793828089,1.0886018724864306,21.071553864516318,0.4652028918280766,11.013458348345011,121.30996395257742,-8.107633190462366,16.706560746494713,185.1633447818458,110.42825964469726
21.255291774403304,2.035697441049996,2.8620990575291216,1.1014699060536108,21.24775797314942,0.46807258715179006,11.016134522622451,121.31177769511149,-8.319880892639048,16.909658169699643,187.41101566143334,111.61043110333347
21.429349928162992,2.042416565038942,2.9007753345067613,1.1144823397739687,21.42205562023446,0.4721762613325355,11.018933676998131,121.31344427097837,-8.533559123636223,17.112925115186265,189.6580724492669,112.79326003799021
21.6063551469706,2.0498302351419473,2.9395722753251903,1.12767632413317,21.59832956083119,0.47697920915843534,11.02185822732281,121.31498363847807,-8.747771237860434,17.316533415846973,191.90447661839426,113.97711530249913
21.777007270604372,2.055957515088928,2.978490243840497,1.1408611821397998,21.76991623500362,0.4785276445827376,11.024910502834246,121.31647560501558,-8.963658626191318,17.520912276654418,194.1501896250993,115.16345679351795
21.946047828998417,2.0616760269545034,3.0175251241889782,1.1537738874304388,21.939276091754436,0.47523842213933254,11.028093263274059,121.3179048921482,-9.181184740387835,17.72583339219581,196.39517557807267,116.3519972632724
22.112408697605133,2.0667261687471994,3.0566745688556693,1.1668453416928721,22.106046656612307,0.47927761903099614,11.031409208779223,121.31921856425677,-9.400532732368447,17.930949517528212,198.6393970604986,117.54176073558675
22.279600703623146,2.071922389064715,3.0959358585532755,1.1800929095364492,22.27296427031979,0.48391142660171405,11.03486095520202,121.32037313189826,-9.62114564422518,18.13608530863479,200.88281442597508,118.73195469669012
