coupler,coupler,$D^a [mM]$,$D^a [mM]$,$I_{islet}^a\ [pg/islet]$,$I_{islet}^a\ [pg/islet]$,$\gamma^b$,$\gamma^b$,$I_{cell}^b [pg/islet]$,$I_{cell}^b [pg/islet]$,$G^b [mM]$,$G^b [mM]$
2.696762793639209,1.0730048205154203,0.5037754067016067,0.07157527554190632,2.501135037164204,0.14302446044321063,11.004381649428979,120.9893798797834,2.696762793639209,0.4472412788976772,5.436810191196855,35.35625078560674
2.9783703784341924,0.9652048359494774,0.5108300001447788,0.10063782140905396,2.8705118905054405,0.1676857569758655,11.00303522811737,120.99399675409764,2.9783703784341924,0.523245309508191,7.672386354999617,35.559447266541774
3.2582498947158456,0.925651765543086,0.5199180843337672,0.12337106600076608,3.186111075337976,0.18196926277919667,11.00170873850584,120.9985732066302,3.2582498947158456,0.547518246486176,9.908422248088755,35.80449183724158
3.536624928470701,0.914542032935534,0.5305479791568359,0.14277943278211477,3.4792732963105664,0.1922362138299294,11.000403371406719,121.00311071505223,3.536624928470701,0.5702693613482747,12.144911563489586,36.090490028158776
3.8134227318223566,0.9190632056144185,0.5424795341532445,0.16050357547679892,3.7624968361342326,0.20290745322206946,10.999120859778486,121.00770410805725,3.8134227318223566,0.5978254308101675,14.3818476467859,36.41678050036931
4.090087610296905,0.9329006689566036,0.5555680682155071,0.17688735011355022,4.04165040270891,0.21198976332785344,10.997862992458977,121.01225389505107,4.090087610296905,0.6178735594417823,16.619226817274466,36.78194629294291
4.365623693098314,0.9523242320378469,0.5697148771578213,0.19178357766502424,4.318485624273308,0.2171676958039098,10.996631486341357,121.01677901165812,4.365623693098314,0.6382058375709794,18.857040889328346,37.18488518306573
4.6396248346427456,0.9749470219837941,0.584841883435729,0.20619899027705943,4.59346055961214,0.22596378334977674,10.995428063790314,121.02128253133314,4.6396248346427456,0.6578262164890644,21.095282163005322,37.62437568824965
4.910768695524894,0.9990674564296593,0.600881447433494,0.2199609734810309,4.865966026904061,0.23294938185861302,10.994254366960377,121.02578169757837,4.910768695524894,0.6778776113580185,23.333942673169076,38.09923718121231
5.180565510760061,1.0239848039092672,0.6177731919306098,0.2333164790708287,5.13666525692679,0.24030157655154305,10.993111863499507,121.03038295548652,5.180565510760061,0.7053232662973935,25.57301499741152,38.60887406709155
5.450484990957193,1.0494847382358374,0.6354653454036452,0.24637888216677642,5.406706104869954,0.24775905290309605,10.992002276470885,121.03486861257308,5.450484990957193,0.7153317808697651,27.812494723591954,39.15049860378252
5.718994796741754,1.0749883385175463,0.6539149229065515,0.2589417994291931,5.67562892450951,0.25275603827358434,10.990927073406056,121.03944434128107,5.718994796741754,0.7411116754713881,30.052368667908013,39.72425007585438
5.9859256179770455,1.1002263054613335,0.6730823311518179,0.27133122824237216,5.943148745340295,0.25942427178757177,10.989888077252544,121.04397864200926,5.9859256179770455,0.7557538556692442,32.29263111576438,40.32779477096612
6.251774207456037,1.1251552549532644,0.6929305994999595,0.2833267645364831,6.209450151887722,0.26377870262651215,10.988886596402153,121.04852434689218,6.251774207456037,0.7742127330865137,34.53327110223472,40.96022988837771
6.51723722810857,1.1498484244351632,0.7134270421229303,0.2949948890051785,6.475025380263105,0.2677138130808068,10.987924242275767,121.05298229803148,6.51723722810857,0.78359416228009,36.77427910408005,41.619350943483795
6.781154379015788,1.173973071852034,0.7345427693653619,0.3068392933078798,6.739375532604754,0.27611334568781787,10.98700247949455,121.05746138849003,6.781154379015788,0.802002296945159,39.01564132142812,42.304855348736375
7.044685694621876,1.1977520637776833,0.7562497537437594,0.31861056774443025,7.002997513161972,0.28253711188855396,10.986122914939187,121.06198923004915,7.044685694621876,0.8225695936635978,41.257347838487476,43.01578659337085
7.305347939953208,1.2205834039951482,0.7785238639771705,0.3302499362705873,7.264600434806198,0.28773897758926453,10.985287189250812,121.06652687649577,7.305347939953208,0.839357310936201,43.49938895273954,43.75055994046907
7.565966548398137,1.243166220687647,0.8013401096977759,0.3419796508598436,7.52536348765716,0.29481439434456247,10.984496396617033,121.0710470221501,7.565966548398137,0.8531434265242751,45.74175376119092,44.507715217195084
7.825490231625736,1.2652818537624766,0.824677492986666,0.3532107627261558,7.785127920797095,0.29550881195428264,10.983752095256932,121.07555931335872,7.825490231625736,0.8675207704849037,47.98442931100726,45.28622145954006
8.08407033723779,1.2870018275935569,0.8485168163024355,0.3644925973237638,8.0439211812336,0.30085139051555465,10.983055714750662,121.08014752459157,8.08407033723779,0.8897120379468341,50.22740281652659,46.085952822460946
8.341547180898488,1.308319421450111,0.8728394588688388,0.37614033006080355,8.301658779615536,0.31043536613891665,10.982408849988133,121.08464295170968,8.341547180898488,0.8951471281299783,52.47066409792751,46.903915310538395
8.59831246198155,1.329359886602703,0.8976279404887464,0.3874669287611214,8.558542243903503,0.3127203175142827,10.981812526937574,121.08917044008587,8.59831246198155,0.9125711974134222,54.714196456596255,47.74059047940899
8.85223279776983,1.3496112475087383,0.9228670064767357,0.3991051480046143,8.813372223172337,0.3210105734631173,10.981268440838903,121.09367073745004,8.85223279776983,0.9237658061592912,56.957987311296165,48.594311082905556
9.10254921275191,1.3688979598849857,0.9485394987568725,0.41054253345993097,9.065213922178373,0.32410843184317967,10.980777435586788,121.0982038977105,9.10254921275191,0.9407635288109812,59.20202205237001,49.46493152420633
9.352973761968315,1.3881868715582737,0.9746284908032976,0.42194626133159724,9.315920752240345,0.32812415702772346,10.980340394424275,121.10276534025567,9.352973761968315,0.956982526003719,61.44628820940852,50.35154972029292
9.601719303289428,1.4070611596144358,1.0011207003553864,0.43338033863075565,9.56516204145737,0.33292762356895844,10.979958828887902,121.10728403273056,9.601719303289428,0.9655381078006353,63.69077187683433,51.252424839911455
9.849473494337872,1.4257068704800762,1.0280031001020689,0.4448031631227093,9.813218293478712,0.33722091288909983,10.979633674258366,121.11180109128412,9.849473494337872,0.978151616786214,65.93545663543046,52.16733201909612
10.09459899761714,1.4437130116171295,1.055263885675231,0.45620719441802227,10.05921947141178,0.3412115401505767,10.97936627350282,121.1163402605149,10.09459899761714,0.9931459087313723,68.18032708764076,53.09587016399397
10.338946440955624,1.461551450461581,1.0828905968519393,0.46752454763682455,10.303928074194118,0.34413965882569497,10.979157518129796,121.12092167456483,10.338946440955624,1.0101273588463953,70.42536878585815,54.037637469844846
10.580595165723935,1.478743867325364,1.1108725799131207,0.4789047995670578,10.546496843686327,0.34869655967249436,10.979008698486723,121.12539122637732,10.580595165723935,1.0097507819907696,72.67056725267321,54.98981516653258
10.823199713602662,1.4961987016118303,1.1391984111687634,0.4902677121883201,10.788779786089435,0.3523745824643556,10.97892014682293,121.12988735529753,10.823199713602662,1.0245413086182478,74.91590257640928,55.95375559387056
11.061665181070566,1.5126087507838248,1.1678599135775585,0.5017075634260194,11.028461678652093,0.3570783145888195,10.978893866529688,121.13441520626002,11.061665181070566,1.0398933086158026,77.1613587597385,56.928958598402325
11.299038182245567,1.5286726979982375,1.1968460946518462,0.5130422500724311,11.26644453802146,0.3594276431967429,10.978930187178776,121.13892583983697,11.299038182245567,1.0493069140977296,79.40692086424679,57.914162180353784
11.5374642603565,1.5448742504948336,1.2261478387226816,0.5245818443366385,11.504376583732665,0.3654607866023604,10.979030031245202,121.14350533953336,11.5374642603565,1.0685889757381513,81.65257119666785,58.91012925551871
11.77317876345478,1.5602368837247287,1.2557583267625887,0.5363807734773812,11.740658519556746,0.37283382486162586,10.97919528663624,121.14801183872694,11.77317876345478,1.0711787143720055,83.89829436689615,59.914245570983496
12.008710175286978,1.5753550104380987,1.2856691055640113,0.5481853680444589,11.976167829940096,0.37699948900101504,10.979426121921279,121.15243596293759,12.008710175286978,1.0721421251005618,86.1440703542903,60.92590440964042
12.246804834110662,1.5909750887268364,1.3158733622985892,0.5597387339758716,12.21290335408412,0.3770545088692589,10.97972376854159,121.15697370435433,12.246804834110662,1.09663816083077,88.38987802155316,61.947675677492605
12.48005118733272,1.6054012895356322,1.3463670174241997,0.5713696680946614,12.447217686101794,0.3808526390968504,10.98009090567939,121.1615383440823,12.48005118733272,1.1107395112172993,90.63570225518197,62.977811745631065
12.710622461512685,1.619259742604637,1.3771414932853077,0.5830407291755744,12.678955981042236,0.38467252714309846,10.980527181993239,121.16602595972388,12.710622461512685,1.1117686631836412,92.88152612838894,64.01430354397868
12.944774307310581,1.6341596644269374,1.4081885447667446,0.5948585691714294,12.911809772718698,0.38993059535230806,10.981032741488889,121.17050000711515,12.944774307310581,1.1202927359497359,95.12732837442309,65.0577854262478
13.172971321735531,1.6478878218726432,1.4395044602279086,0.6066122286318709,13.14153459155932,0.3924621776400534,10.981610155198723,121.17504935766644,13.172971321735531,1.1400341217031198,97.3730883365497,66.10932447355218
13.397836786229163,1.660998394629116,1.4710810043907259,0.6182402046928331,13.36800659680739,0.39356001972610666,10.98225916235242,121.17962868542662,13.397836786229163,1.1538129387433504,99.61879046913236,67.16786977146566
13.621111724991351,1.6738095242791684,1.502910106239142,0.6299586704351929,13.592220943886787,0.39740199246212893,10.982979787630029,121.18418348436948,13.621111724991351,1.160486155259369,101.86441693082452,68.2322356459616
13.849976819008589,1.6879210419218391,1.5349849755584728,0.6417146901427802,13.818884291220456,0.40088306359832104,10.983772527892143,121.1887575830715,13.849976819008589,1.172575969943622,104.10994742251933,69.30284366010318
14.078546037431806,1.7018490925060212,1.567304220458027,0.6535840630200073,14.046347741037607,0.40541603429826856,10.98464056942612,121.19330097372239,14.078546037431806,1.1783898777995097,106.35536114312708,70.3786026427645
14.303984489757568,1.7148647064564704,1.5998646722291596,0.665582323002577,14.272250871639699,0.4103566563553671,10.985584886861034,121.1977650967887,14.303984489757568,1.1776394057156354,108.60063615068793,71.45845716882725
14.520847270265222,1.7257810358967813,1.6326608273666352,0.6775543517917624,14.492382620926946,0.41308917086717317,10.986605475889519,121.20230958924665,14.520847270265222,1.1976390811399726,110.84574933722615,72.54480251187988
14.742340911179781,1.7377825557943318,1.665683161583729,0.6895802322597796,14.712982506025583,0.4165320520154012,10.98770116257947,121.206775674443,14.742340911179781,1.196195398871368,113.09068488702178,73.63476432619541
14.962425416335464,1.7495980456417293,1.6989287128672004,0.7016025800523573,14.932922467589378,0.4192340907586475,10.988874093047343,121.2112584586929,14.962425416335464,1.2074972520735536,115.33541790768504,74.72971558145635
15.18084729788825,1.7612851069925843,1.7323935251915827,0.7135205579477569,15.151599223259836,0.42027431345432065,10.99012529605534,121.21581096045604,15.18084729788825,1.225857479000819,117.57992799393833,75.83033579355025
15.394530809018761,1.7722223157923407,1.7660732027725317,0.7257191810821243,15.366926029790193,0.42671779959838513,10.991455533890985,121.22034767007071,15.394530809018761,1.232582033324092,119.82419650256634,76.93498015503631
15.610176770016551,1.7838798802906168,1.799961298063863,0.7379300704522507,15.58208889560774,0.43003111983569914,10.992863872088492,121.22484522285482,15.610176770016551,1.2358065913544383,122.06820235773921,78.04306697893547
15.82409245800227,1.7953327009372104,1.8340548374690115,0.7499565922399508,15.796146572101861,0.42986401437102456,10.99435202544555,121.22941573668128,15.82409245800227,1.2544283715501585,124.3119220212102,79.15632872135811
16.030927933752537,1.8052854444887938,1.8683500570477918,0.7618317030075612,16.00551252765581,0.42951072931464773,10.995920907589607,121.233937407492,16.030927933752537,1.256166092400826,126.55533658899367,80.27250957528894
16.243225620593876,1.816472863208547,1.902839910297189,0.773979489569692,16.21627770131454,0.43547906917509116,10.99756840232294,121.23848172073907,16.243225620593876,1.2674440136935672,128.798423955217,81.39267967802047
16.453896017745137,1.827243101949101,1.937522985797841,0.7863445034498067,16.426625021267682,0.4416672557710061,10.99929793109186,121.24299608795113,16.453896017745137,1.2715266911198726,131.04116181097925,82.51577949499733
16.661852287128568,1.837378137969312,1.9723964073345996,0.7984427961179372,16.635175577830523,0.440541537074903,11.001109715900384,121.24753345426835,16.661852287128568,1.2829246639280698,133.28352693095803,83.64258173109174
16.866627167910337,1.8468187461215875,2.007456329476554,0.8105432158339017,16.84109726175666,0.4422391876006268,11.003003958961926,121.25202756924801,16.866627167910337,1.2847567501675379,135.52549824863672,84.77179794570205
17.06934374338016,1.8558613937536863,2.0426980527699925,0.8228476338867885,17.044731257017702,0.4474636518828591,11.00498012418393,121.25652241040873,17.06934374338016,1.2926446009870018,137.7670524213463,85.90406649946213
17.27451974945143,1.865552005789346,2.078117302444298,0.8351526407706432,17.248924834188074,0.4501146440715565,11.007038557669148,121.26100539519777,17.27451974945143,1.2985806413232626,140.00816751644015,87.03904288823603
17.474977941717952,1.8743470656195906,2.1137125073582865,0.8476870850888061,17.450510524213314,0.4558894541264668,11.009181191329844,121.26551401083294,17.474977941717952,1.3099928151692843,142.2488198801875,88.17726523145058
17.680251692887396,1.8843204751603264,2.149479318817612,0.8600188170244654,17.653941500466317,0.45547482700709024,11.011407236917876,121.26998680282583,17.680251692887396,1.3122233392865843,144.4889886584133,89.31753873438915
17.8803479061462,1.8932707557909718,2.1854174443287775,0.8724230077526728,17.855003007221967,0.45830096051052704,11.013719397247769,121.27451051985372,17.8803479061462,1.3272910838490943,146.72864840179682,90.46128568386915
18.0786959878169,1.9019201916712876,2.221522888459731,0.8847818663550957,18.054066949989647,0.4597748593985968,11.01611687161494,121.27911136063858,18.0786959878169,1.3459948568106865,148.96777881123126,91.60885829123315
18.27570774545893,1.9103372118248896,2.257792169926688,0.8970189592008292,18.251529166009277,0.45976672965686416,11.018599985865876,121.28360405268396,18.27570774545893,1.3373176126424928,151.2063598781824,92.75687235961509
18.468707563355565,1.9179424486843324,2.2942222245619632,0.9095379334582069,18.445942618418485,0.4658504644753586,11.021168220904656,121.28812935367496,18.468707563355565,1.349328388521555,153.44436467252672,93.90774300661913
18.667224335018545,1.9268525732576032,2.330808754370082,0.9218673172806591,18.642446095123887,0.4654535522821247,11.023821397335269,121.29282055995583,18.667224335018545,1.3809405433412467,155.6817722786218,95.06374388873073
18.85840617166832,1.934403559197711,2.3675519058015198,0.9343294796060573,18.835383783560246,0.46911024586106087,11.02656350156758,121.29735079958755,18.85840617166832,1.3641775634491564,157.91856409795582,96.21894770704205
19.05664525507018,1.9437497899281175,2.404447157634422,0.9466929644712662,19.03112884471193,0.46969793381135416,11.029390601324849,121.30190301667388,19.05664525507018,1.3743221296490284,160.15471210889518,97.37655848594007
19.252171551343054,1.9528984730365524,2.44149519916391,0.9594238923504148,19.226368451025337,0.47724679086805777,11.032307650428265,121.3064184102421,19.252171551343054,1.375776985390488,162.39019213430583,98.53544355731508
19.43473202176392,1.9597239573101366,2.4786939439945854,0.9719301933451959,19.413625907618552,0.47650250349107826,11.035314058070071,121.31094990851217,19.43473202176392,1.3851233591947893,164.62497918866575,99.69648063098673
19.62341604521498,1.9681911584708023,2.5160359506844543,0.9844059985494262,19.60136387636885,0.47738640053705284,11.038404983351938,121.3154897488219,19.62341604521498,1.3927917934553928,166.85905327275395,100.85945589846717
19.809314584359527,1.9763258073490788,2.5535201755701564,0.997099228684821,19.787622198928148,0.4825205813799561,11.041584032122046,121.3201045700741,19.809314584359527,1.4108757184553684,169.0923901759088,102.02549708104273
19.990520518738776,1.983628239832383,2.5911440783529542,1.0099276777717496,19.97047268273309,0.4870246270087197,11.044851094135083,121.32461100133521,19.990520518738776,1.4006213407377344,171.32496959157288,103.19122577191658
20.171231427695602,1.990875068200672,2.6289038404938765,1.022512291319299,20.151662605348974,0.48529521901485795,11.048203802434728,121.32917682146778,20.171231427695602,1.4160708015652272,173.55676521919668,104.35961988032373
20.35395648283884,1.9985204098483385,2.6667971165734343,1.0353983289668018,20.333396200556308,0.4913172410955225,11.051643566926941,121.33377845425497,20.35395648283884,1.4278349154468826,175.78775630705059,105.53018411317977
20.538693563081324,2.0066022025423536,2.704822969448287,1.0482670757840995,20.516554253175855,0.49347238323299764,11.055172021617182,121.33838522663036,20.538693563081324,1.434892119932432,178.01792029477656,106.70230017280655
20.7270130882971,2.0155068180147717,2.7429813134367578,1.0611490958047727,20.702431147918105,0.49550878300855317,11.058790790149942,121.34298830324755,20.7270130882971,1.440608201901916,180.2472330313176,107.87575132561528
20.904867727309465,2.0223898074062725,2.7812729132710956,1.0739331050829521,20.883116280194372,0.4957300424819654,11.06250241259113,121.34748296330962,20.904867727309465,1.4298458741825943,182.47566927224398,109.04858494981255
21.07844523852691,2.0285882672802056,2.819692933408078,1.0867640743520364,21.05915798479691,0.49794372801712905,11.066301952698268,121.35204795224796,21.07844523852691,1.4469424438298149,184.70320317335427,110.22401093659087
21.255291774403304,2.035697441049996,2.8582369760260917,1.0993441455459427,21.235303436871618,0.4955200096752935,11.070188969490118,121.35661507230128,21.255291774403304,1.4530540787034523,186.92981507442892,111.40072888995803
21.429349928162992,2.042416565038942,2.896904155437369,1.1124559949400226,21.409816922154278,0.5051994923559954,11.074165463331155,121.36120244880036,21.429349928162992,1.4621399184092367,189.15548090450466,112.5790205046164
21.6063551469706,2.0498302351419473,2.935692131810356,1.1254834707553296,21.585445967968553,0.5067463959479784,11.078230856801383,121.3658361951489,21.6063551469706,1.4752787718807938,191.3801784478128,113.75931244175217
21.777007270604372,2.055957515088928,2.974600819812622,1.1384493596690757,21.757709097117186,0.5073572529654825,11.082387540256605,121.37038940753412,21.777007270604372,1.468188058574776,193.60388511233032,114.93923851146076
21.946047828998417,2.0616760269545034,3.0136269681388512,1.1514424419358698,21.92765867104754,0.5092266396205333,11.086632248712704,121.37498991448177,21.946047828998417,1.4813601231723137,195.82657562755048,116.12110202919467
22.112408697605133,2.0667261687471994,3.052768071705941,1.1645230143594039,22.09507485665381,0.5122713093509286,11.090965543291532,121.37960350983502,22.112408697605133,1.4889554428273688,198.04822899214923,117.30422946877795
22.279600703623146,2.071922389064715,3.0920215299120173,1.177421366189765,22.261976305861026,0.5110113700521819,11.095386503380723,121.38421279135531,22.279600703623146,1.4936258579236605,200.26882309652865,118.48826084848592
