coupler,coupler,$D^a [mM]$,$D^a [mM]$,$I_{islet}^a\ [pg/islet]$,$I_{islet}^a\ [pg/islet]$,$\gamma^b$,$\gamma^b$,$I_{cell}^b [pg/islet]$,$I_{cell}^b [pg/islet]$,$G^b [mM]$,$G^b [mM]$
2.696762793639209,1.0730048205154203,0.5037754067016067,0.0706348131216524,2.501135037164204,0.14114185526765366,11.004381649428979,120.9892740262952,2.4585235615086276,15.445545140071905,5.436810191196855,35.3561454090583
2.9783703784341924,0.9652048359494774,0.5108306317270035,0.09992004222095245,2.87051185045857,0.167279070451595,11.005862700287253,120.99381238214754,2.795445162773831,10.96187051386528,7.672448380384594,35.55953192270377
3.2582498947158456,0.925651765543086,0.5199188379192492,0.12296115885402736,3.18611100979615,0.18257189900676415,11.005953100160696,120.99828176301236,3.046770701825153,7.960516577656445,9.907750223297626,35.80478062319865
3.536624928470701,0.914542032935534,0.5305485725548351,0.14251356709650478,3.479273231117986,0.19272697292566707,11.005383845418692,121.00278651871412,3.2377417102688923,6.031943534038056,12.143119429703802,36.09125467177447
3.8134227318223566,0.9190632056144185,0.5424800119799329,0.16014474475644414,3.7624967807205394,0.20234703766652,11.00450714014005,121.00727191296389,3.385991095972713,4.87218829561178,14.378755442332476,36.41781334677196
4.090087610296905,0.9329006689566036,0.555568664407474,0.17600988636777903,4.041650342172943,0.2086947538108884,11.003491357550956,121.01180713552553,3.5042881253757514,4.236380147776122,16.614754024194553,36.78364197497129
4.365623693098314,0.9523242320378469,0.5697160998097388,0.19094772652249245,4.318485502502881,0.21648413971110042,11.002416242146865,121.01631300954833,3.6012691371142864,3.9232309768412104,18.851163622690365,37.18724045993229
4.6396248346427456,0.9749470219837941,0.584843223055941,0.2053349714124696,4.593460401054472,0.22525896662476075,11.00131887581665,121.0207054299741,3.6828560241265222,3.786778231088282,21.088005509460345,37.626874831028736
4.910768695524894,0.9990674564296593,0.6008828978083329,0.21910516786902728,4.865965843084268,0.23249869179469762,11.000216051237658,121.02516673585411,3.7527966590132564,3.7404703559321524,23.325286079896614,38.10224609381651
5.180565510760061,1.0239848039092672,0.6177747072215425,0.2322616913285539,5.136665056808852,0.23827897395952308,10.999115273472853,121.02971894040505,3.814167379983701,3.736509648981409,25.563012667000294,38.61225614705116
5.450484990957193,1.0494847382358374,0.6354671309672995,0.24501615195482637,5.4067058603977785,0.24442701859865898,10.998019680031575,121.03427630061786,3.869562294508796,3.7506116846645936,27.801190480124205,39.155039336186356
5.718994796741754,1.0749883385175463,0.6539171223848825,0.2576720456429816,5.675628606812097,0.25246578701027644,10.996930420864373,121.03883425690074,3.920337406510953,3.772776928772107,30.03982005175203,39.72921406471748
5.9859256179770455,1.1002263054613335,0.673084563240991,0.2700850256655372,5.943148398771882,0.25906385930739767,10.995847864309326,121.04346547278703,3.967391106474679,3.7998179572209607,32.27890105172992,40.33402736690992
6.251774207456037,1.1251552549532644,0.69293286978791,0.2824982411119052,6.209449788904749,0.2671453413120282,10.994772175210528,121.0480346395493,4.01150130154565,3.8283961286584294,34.518435437232256,40.967029217127056
6.51723722810857,1.1498484244351632,0.7134289693640312,0.29444401790119545,6.475025067804381,0.27064175500949167,10.993703282321803,121.0525414803343,4.053421469347086,3.8587939910632003,36.758419977501035,41.626849640855575
6.781154379015788,1.173973071852034,0.7345444180682534,0.3062020323512403,6.73937528883107,0.2754836252628583,10.992641205433756,121.05707966399035,4.09333104651887,3.892468458151845,38.998851276002824,42.313049598278084
7.044685694621876,1.1977520637776833,0.7562514584715245,0.3182238916776282,7.002997279865667,0.28477359239547184,10.991586118005216,121.06167890397204,4.131703759543598,3.929548157959787,41.23972924798727,43.02469242465779
7.305347939953208,1.2205834039951482,0.778525377259939,0.32964422073467314,7.264600248308852,0.28561343881953427,10.99053825426381,121.06627451054266,4.168126245029271,3.9691082963266737,43.48105472372845,43.759927502057124
7.565966548398137,1.243166220687647,0.8013417932961602,0.34127061966843647,7.525363276479766,0.29313708534443617,10.989497720496729,121.07086259363875,4.20315675274469,4.011431668811246,45.72282621730119,44.517533011414855
7.825490231625736,1.2652818537624766,0.8246793049329426,0.3528097003699579,7.785127673996612,0.29842499586557186,10.98846470983699,121.0755113074263,4.236870716384146,4.057487741154794,47.96504193730652,45.29712913611909
8.08407033723779,1.2870018275935569,0.8485184168384876,0.36409921209728796,8.043920977273956,0.30125643450275524,10.987439523800276,121.08009203700968,4.269366400083527,4.105489910620933,50.207702465355396,46.09618391448454
8.341547180898488,1.308319421450111,0.8728410314070061,0.3757143692388301,8.301658594282344,0.3099833462785762,10.986422303365543,121.08470633517501,4.30066466255812,4.157160214982148,52.450803622137755,46.914821631429206
8.59831246198155,1.329359886602703,0.897629542829236,0.38720271776136955,8.558542056474835,0.3144010243045279,10.985413374495693,121.08936683806796,4.330897741368972,4.212270637004609,54.69434486050159,47.752215991598945
8.85223279776983,1.3496112475087383,0.9228685022389982,0.39858102334562695,8.813372071133927,0.31808989307910585,10.984413055120967,121.09397686306143,4.359518208657391,4.269445984551188,56.93832597602159,48.6062385891154
9.10254921275191,1.3688979598849857,0.9485411718778778,0.4100653500616134,9.065213720081374,0.3240376313258302,10.983421484008431,121.0986551287432,4.385915173275862,4.3303706423565105,59.182743282057345,49.47747685427146
9.352973761968315,1.3881868715582737,0.9746301676495932,0.42140249616921716,9.315920536639169,0.3271350422038226,10.98243891238235,121.1034138701213,4.410774741205387,4.394597218159838,61.4275975683704,50.365256920832614
9.601719303289428,1.4070611596144358,1.0011224321497139,0.43272089004779835,9.565161801874638,0.33115055583505487,10.981465630698949,121.10816770769436,4.434041019470897,4.460806464956731,63.67288980726153,51.26766305747019
9.849473494337872,1.4257068704800762,1.0280049269495066,0.4441948533520735,9.813218008959666,0.3373703206045979,10.980501793557778,121.11285393101795,4.455881149333436,4.528575547950996,65.91861776914448,52.18308150874053
10.09459899761714,1.4437130116171295,1.0552657042862847,0.4554400511574788,10.05921917478554,0.3390090051657885,10.979547535069287,121.11760786588395,4.475920999771915,4.599767359881527,68.16477689240128,53.112622140498225
10.338946440955624,1.461551450461581,1.0828925242822152,0.4669264053600692,10.303927724482492,0.3457317451918612,10.97860315698199,121.1224511046767,4.494454001483973,4.6739752481128924,70.4113675635308,54.055913326321495
10.580595165723935,1.478743867325364,1.110874430538388,0.47846588425768655,10.546496517723426,0.3508338676045954,10.977668966865167,121.1272611958846,4.511109349317849,4.749457752008115,72.65839082375169,55.01059367551567
10.823199713602662,1.4961987016118303,1.1392001619096845,0.48992301631968,10.788779510417953,0.35381931706563485,10.97674504830502,121.13205329675911,4.5267238085507415,4.8267814497149,74.90584325417876,55.97626255141748
11.061665181070566,1.5126087507838248,1.1678615993296262,0.5015701652410525,11.028461448615417,0.35994703760494456,10.975831639720127,121.13686329023564,4.54035474662669,4.906370891825592,77.15372171718627,56.95286016904424
11.299038182245567,1.5286726979982375,1.1968476554029621,0.512933135244329,11.266444387147203,0.360224130937977,10.974928941344842,121.14159727573428,4.552256401570048,4.987053762209217,79.40202461928129,57.93846435454607
11.5374642603565,1.5448742504948336,1.2261493661499117,0.5244843357865379,11.504376470809802,0.365710028674716,10.97403705038596,121.1465188528219,4.563250453094952,5.071790964775471,81.65074678976089,58.936474129601926
11.77317876345478,1.5602368837247287,1.2557598439452704,0.5361371536707029,11.740658425260335,0.3708667757965714,10.973156517720781,121.1513389795836,4.572782837145496,5.156487616357542,83.89989239815623,59.9420747383146
12.008710175286978,1.5753550104380987,1.2856707009195816,0.5477531867977372,11.976167700486258,0.37404395589493306,10.97228735324461,121.15620316226057,4.581224126450252,5.243427088111918,86.14945508725941,60.95701387014513
12.246804834110662,1.5909750887268364,1.3158750718575902,0.5594542940810857,12.212903143605217,0.378498761745672,10.971429890603758,121.16103399879907,4.589657817385159,5.331487515558479,88.39943367056549,61.97967563311843
12.48005118733272,1.6054012895356322,1.3463686724135187,0.5710376044689471,12.447217488894239,0.3803376247213811,10.970584452385083,121.16594499765306,4.596618926676456,5.421913707320702,90.64982381742448,63.011410363412494
12.710622461512685,1.619259742604637,1.3771431668137666,0.5827431919073811,12.678955771028996,0.3849807708708493,10.969751370023005,121.17086144880037,4.601734067662619,5.5134836515139085,92.90062555484474,64.05067049298226
12.944774307310581,1.6341596644269374,1.4081902075267863,0.5942777088077102,12.911809566896409,0.3858984720086986,10.968930789385922,121.17575227776223,4.606618559395429,5.606004349482503,95.15183625929058,65.09660670917225
13.172971321735531,1.6478878218726432,1.4395062613475602,0.6061324731315653,13.141534286551178,0.3930956298490092,10.968123011873104,121.18069102087254,4.609542586258613,5.700300765086277,97.40345168765634,66.15004648762081
13.397836786229163,1.660998394629116,1.4710827833623625,0.6178380926268358,13.368006279226393,0.39464233913658137,10.967328271479346,121.18557762386037,4.610082392464392,5.795171312445659,99.65547064319253,67.20906809862626
13.621111724991351,1.6738095242791684,1.502911849616794,0.6297591751568652,13.59222064865753,0.40037151426189027,10.966546587762423,121.19050370924407,4.608463688928168,5.891697370820769,101.9078883221373,68.27484971551455
13.849976819008589,1.6879210419218391,1.5349866239994299,0.6415637704303346,13.81888407561928,0.40200377154673395,10.965778179466724,121.1954561480834,4.606998830568045,5.989444098467711,104.16070321947336,69.34689368079074
14.078546037431806,1.7018490925060212,1.5673058334214147,0.6533188223518062,14.046347576659173,0.40389180082262544,10.965023456839845,121.20041074059166,4.6055406939121895,6.088114383274112,106.41391265019774,70.42453276749465
14.303984489757568,1.7148647064564704,1.5998663314967416,0.6652110039877132,14.272250683512539,0.4085008320737552,10.964282784378156,121.20533957860218,4.603135914134327,6.187517780517283,108.66751295141876,71.50705222398025
14.520847270265222,1.7257810358967813,1.6326625416986644,0.6770451544535419,14.492382382508367,0.4106752517612065,10.963556397357024,121.21025808226868,4.597483771445695,6.287885510470198,110.92149954847991,72.59446843047816
14.742340911179781,1.7377825557943318,1.665684945473913,0.6889159986481801,14.71298218658194,0.41373338319799613,10.962844320223667,121.21527584541153,4.590935860935133,6.390027622945222,113.17586914822459,73.68838306818066
14.962425416335464,1.7495980456417293,1.6989305759198032,0.7009673567913024,14.932922048028558,0.419050245433289,10.962146965437569,121.22016231593547,4.583326399559155,6.4916432619412054,115.43062162771821,74.78471799993383
15.18084729788825,1.7612851069925843,1.7323953927843831,0.7129784764314229,15.151598775293678,0.421472991259299,10.961464388296008,121.22523034732168,4.574463299999479,6.595855077281136,117.68574850074947,75.88854248676027
15.394530809018761,1.7722223157923407,1.766075037245173,0.725004273003385,15.366925603710115,0.4241947537735436,10.960797104868107,121.23026966549605,4.563289636105765,6.700089861700095,119.9412526730448,76.9960980042481
15.610176770016551,1.7838798802906168,1.7999631990096532,0.736993289634047,15.582088395953178,0.4261275305476791,10.960145127726719,121.23526250075592,4.551075711962767,6.804606458875932,122.19712954387069,78.10690726651085
15.82409245800227,1.7953327009372104,1.8340568397543393,0.7488467063382135,15.796145937871188,0.42638942596099727,10.959508649422787,121.24034935674946,4.537603067350574,6.910660405785475,124.45337348803878,79.22320093784576
16.030927933752537,1.8052854444887938,1.8683521469938569,0.7611946727953525,16.005511758849025,0.43585969247654205,10.958888055058196,121.2454179994786,4.521113966649864,7.016985635691647,126.70998402126133,80.34288654658678
16.243225620593876,1.816472863208547,1.9028418410453014,0.7733760984011018,16.216277078725398,0.4368447040430865,10.958283334271982,121.25052286534785,4.5041407404933125,7.124163353010639,128.9669569786638,81.46675434611187
16.453896017745137,1.827243101949101,1.937524882669095,0.7855724897346724,16.42662447458133,0.43917487048021053,10.957694861106575,121.2556552825961,4.486329295730684,7.232017550042044,131.22428940422833,82.59450568330216
16.661852287128568,1.837378137969312,1.9723983634030446,0.7978036171687916,16.63517498038709,0.4419991848382734,10.957122940570116,121.2607456679104,4.46710580540821,7.340042935002726,133.4819780625403,83.72479411003218
16.866627167910337,1.8468187461215875,2.0074582511442713,0.8100403395494055,16.84109669411555,0.44442362404779356,10.956567739485763,121.26591579398291,4.445928507077042,7.449264653912752,135.74001728743315,84.85961549666372
17.06934374338016,1.8558613937536863,2.0426999235060066,0.8225048415268147,17.04473076807335,0.45015341213818766,10.956029545050114,121.27106878751714,4.422755272127688,7.558698748854923,137.9984058700502,85.99714877754288
17.27451974945143,1.865552005789346,2.0781191113055684,0.8347204805786115,17.248924451414496,0.4490807243038079,10.955508484505117,121.27616051599493,4.398911961528938,7.668233736084504,140.25713904574513,87.13650879422796
17.474977941717952,1.8743470656195906,2.113714339560829,0.8471299260258068,17.45051014283672,0.4536937507696925,10.955004804185592,121.28129953268433,4.373173653206322,7.778765323653051,142.51621003635228,88.27950090738025
17.680251692887396,1.8843204751603264,2.1494811983429827,0.8594329074254901,17.65394104877487,0.4545501012511184,10.95451878849417,121.28648049191098,4.347543120093178,7.889971027077396,144.775616299361,89.42592340756316
17.8803479061462,1.8932707557909718,2.1854193439357914,0.8717923688242575,17.855002509895712,0.4573233117293617,10.954050882835872,121.29156873078871,4.32042444718536,8.000934274825587,147.03535441309214,90.57328663275342
18.0786959878169,1.9019201916712876,2.221524808963295,0.8841244046088694,18.05406640516594,0.45905795922172243,10.953601198154502,121.2966750116577,4.291729428048711,8.11267344507053,149.2954164557159,91.72347508521477
18.27570774545893,1.9103372118248896,2.257794105214998,0.8967519387419501,18.25152858486399,0.4656589897295162,10.953170037362725,121.30182753456988,4.261520096973982,8.225146993799312,151.5557984188199,92.87690099802477
18.468707563355565,1.9179424486843324,2.2942240387783386,0.9094179197170352,18.445942227263004,0.4690369854996894,10.952757705235854,121.30706138603254,4.229037312907167,8.338370253090236,153.8164973128587,94.03410206716633
18.667224335018545,1.9268525732576032,2.3308105040341616,0.9217601831084534,18.642445858567953,0.46614404826795947,10.952364444267005,121.3122775391801,4.196608440892305,8.451603324221253,156.0775114390999,95.1932198670493
18.85840617166832,1.934403559197711,2.367553642077837,0.9342934481027505,18.835383608471602,0.4703278171906466,10.951990594039671,121.31743950808509,4.162007122300565,8.56486663160816,158.33883486688137,96.35352345483484
19.05664525507018,1.9437497899281175,2.4044488695799373,0.9467315907986817,19.03112872922793,0.471080015727565,10.951636277139187,121.32262147088393,4.127992735651787,8.678732120714745,160.60046085901558,97.51628544858559
19.252171551343054,1.9528984730365524,2.4414968844503164,0.9594775831323241,19.22636840166524,0.47771217162416046,10.951302011031657,121.32791440463457,4.093566044874024,8.793540716042614,162.8623845409602,98.6830705137249
19.43473202176392,1.9597239573101366,2.4786956203752197,0.9720892956120799,19.413625902030617,0.47827810412374894,10.950988284312189,121.33315550508841,4.054951821395662,8.908147682840672,165.12460448406637,99.85085592219356
19.62341604521498,1.9681911584708023,2.516037594352383,0.984674906286403,19.601363954599947,0.47947221511407956,10.95069499721285,121.33841610821102,4.015234261110891,9.02319257024928,167.38711429014802,101.02088911592715
19.809314584359527,1.9763258073490788,2.5535217812284827,0.997217794934297,19.787622364703566,0.480481481498234,10.950422484078445,121.34357398073983,3.973899786826223,9.138018208737641,169.64990928396583,102.19089131260544
19.990520518738776,1.983628239832383,2.5911457212641835,1.0099002519749436,19.970472796354443,0.4843730056067878,10.9501708970638,121.3487324748014,3.930016895465087,9.253392420521303,171.91298035532236,103.36270237815208
20.171231427695602,1.990875068200672,2.6289055318338796,1.022703275077477,20.15166262164712,0.4884022001369913,10.949940474703908,121.35399859474022,3.8841930952039547,9.369650068380711,174.1763223670423,104.53822479499762
20.35395648283884,1.9985204098483385,2.6667987526161596,1.0353589517113355,20.333396300207824,0.48811621225750695,10.949731600470841,121.35928544812734,3.8376065432676114,9.486062656683723,176.43993388861418,105.71581116698277
20.538693563081324,2.0066022025423536,2.7048246614285745,1.0481393897538234,20.516554252244532,0.4915221857102966,10.949544608476572,121.3645068961279,3.791081364674028,9.602326216272568,178.7038099374622,106.89383527536508
20.7270130882971,2.0155068180147717,2.7429830388282426,1.06096803995881,20.702431050594896,0.49430508068460194,10.949379846453667,121.36968213362753,3.7456657131551765,9.718758775191356,180.967942006886,108.07260938301981
20.904867727309465,2.0223898074062725,2.7812746583949775,1.073527082659014,20.88311610603705,0.49180952836312763,10.949237823137082,121.37487982675707,3.6978793657617643,9.835697385794102,183.2323218099773,109.25335027911164
21.07844523852691,2.0285882672802056,2.819694744364824,1.0866162551868235,21.059157639276236,0.5014606089228824,10.949118823977187,121.38017305045402,3.6471427437500097,9.953285635854073,185.49694452807307,110.43736332259742
21.255291774403304,2.035697441049996,2.858238727611024,1.0993511275575394,21.23530318122357,0.49861423855747566,10.94902312848717,121.38540329198372,3.595314131118357,10.070658919863108,187.7618080228567,111.62168431589308
21.429349928162992,2.042416565038942,2.8969058557995595,1.1121523427075821,21.40981680667028,0.500585327885607,10.948950980673544,121.39060679982772,3.5418771735276096,10.188210094220864,190.0269038360566,112.80695496533536
21.6063551469706,2.0498302351419473,2.935693906620145,1.1251801078649788,21.585445699747652,0.5059599418476329,10.948902680771425,121.39581659722467,3.4881913161370903,10.306083883914672,192.29222479090095,113.99375717516796
21.777007270604372,2.055957515088928,2.9746026063221507,1.138063336207983,21.757708767894655,0.5058086003366751,10.948878684546798,121.40110197941888,3.4324183391290717,10.424476940920867,194.55776456929743,115.1833373529581
21.946047828998417,2.0616760269545034,3.0136287791538052,1.1510798791844663,21.927658267319202,0.5092956099444199,10.948879348579794,121.40630453163024,3.37469413963845,10.542648558169855,196.82351962849498,116.37272214912129
22.112408697605133,2.0667261687471994,3.0527698811492883,1.163891620167946,22.095074432436377,0.5077498106862356,10.948904870892875,121.41154606578279,3.31479351548478,10.661259586830107,199.08948066830635,117.5641589288106
22.279600703623146,2.071922389064715,3.0920234088553116,1.1769360789319536,22.26197567814961,0.5126064093696251,10.948955603060313,121.41678250832143,3.253612361731939,10.780020501016462,201.355642715469,118.75680035173144
