coupler,coupler,$D^a [mM]$,$D^a [mM]$,$I_{islet}^a\ [pg/islet]$,$I_{islet}^a\ [pg/islet]$,$\gamma^b$,$\gamma^b$,$I_{cell}^b [pg/islet]$,$I_{cell}^b [pg/islet]$,$G^b [mM]$,$G^b [mM]$
2.696762793639209,1.0730048205154203,0.5037754067016067,0.07086603752806538,2.2566003418178298,0.14251985976488038,11.004381649428979,120.98930149441021,2.696762793639209,0.4433690437555402,5.436810191196855,35.356172753432666
2.9783703784341924,0.9652048359494774,0.5093050478462828,0.10051866053445901,2.515607485373039,0.1980305194471808,11.003035185160115,120.99388752369285,2.9783703784341924,0.5214942945363056,7.672383518423885,35.559317447104384
3.2582498947158456,0.925651765543086,0.5164232450624695,0.12325675911996516,2.7765628410852514,0.2385332488591947,11.001708674244583,120.99846832360099,3.2582498947158456,0.5477779994327674,9.908415473415516,35.80437256826921
3.536624928470701,0.914542032935534,0.5249905207165284,0.14296016021052482,3.0390802875044756,0.2725747324545219,11.000403309124522,121.00306197007171,3.536624928470701,0.5737860226916647,12.144901010906324,36.09054058220715
3.8134227318223566,0.9190632056144185,0.5348872584145283,0.1603625774214961,3.3028087763814256,0.30126106629871835,10.999120847671293,121.00766211494472,3.8134227318223566,0.5982645333740428,14.381835347157903,36.41685493494429
4.090087610296905,0.9329006689566036,0.5460111184511334,0.17596034097474647,3.5675798387965187,0.32549695649691957,10.997862983611412,121.01227752434248,4.090087610296905,0.6223134354320975,16.61921300063841,36.782301845717086
4.365623693098314,0.9523242320378469,0.5582739447563654,0.1907951833647199,3.833144903066568,0.3484794276014187,10.99663154501468,121.01683687220243,4.365623693098314,0.640615322835577,18.857027928577736,37.185405079001114
4.6396248346427456,0.9749470219837941,0.5715976874053013,0.20484614872348583,4.099242113530636,0.3696492027917009,10.995428160298616,121.0213561943244,4.6396248346427456,0.6589795097260183,21.09527128166519,37.62497670217129
4.910768695524894,0.9990674564296593,0.5859137459046906,0.21815902106924648,4.365505573689006,0.3888627213362746,10.994254481280223,121.02595562474559,4.910768695524894,0.6853896107172478,23.333934439113364,38.10044188800063
5.180565510760061,1.0239848039092672,0.6011607809487032,0.23116374169481824,4.63175878545735,0.4077005875326629,10.993112098309211,121.03051148413577,5.180565510760061,0.7018355238014244,25.57301303022541,38.60976149244434
5.450484990957193,1.0494847382358374,0.6172836336045293,0.24367790704640874,4.897991594276391,0.4250600812415385,10.992002451326698,121.03508407958981,5.450484990957193,0.7222310896260924,27.81249734852463,39.15199952184858
5.718994796741754,1.0749883385175463,0.6342335775261745,0.25607700455352217,5.164043021388352,0.44252878354876246,10.990927362814546,121.03955207782508,5.718994796741754,0.7323358662739241,30.05237905634567,39.72489980252628
5.9859256179770455,1.1002263054613335,0.6519661753700348,0.2681403717661069,5.429752662661485,0.4587989112685608,10.989888212294318,121.04409259578465,5.9859256179770455,0.7562721426068625,32.292645322624594,40.32848645466356
6.251774207456037,1.1251552549532644,0.6704413583647693,0.27992949937209316,5.695026936358772,0.4740968232070374,10.988886740989983,121.04864765738354,6.251774207456037,0.7750095044008534,34.53328941017389,40.960992895587644
6.51723722810857,1.1498484244351632,0.6896226281533018,0.2914842582520974,5.959852371248417,0.48854607934919836,10.98792440071702,121.0531003361226,6.51723722810857,0.7831310335821824,36.774301844183356,41.620054528317105
6.781154379015788,1.173973071852034,0.7094767980161123,0.3028647281906848,6.2241018019849434,0.502388720864677,10.98700262827333,121.05761757445968,6.781154379015788,0.8054107851599702,39.01566831348464,42.305913761747775
7.044685694621876,1.1977520637776833,0.7299732627288904,0.3141496866443955,6.487777695292607,0.5159634281400507,10.986123127746396,121.06223181628714,7.044685694621876,0.8303813215281944,41.257380455732346,43.017692087002054
7.305347939953208,1.2205834039951482,0.7510839658934856,0.3255455770665943,6.750634808093309,0.5302905007242231,10.985287557705306,121.06679453105815,7.305347939953208,0.8416735198253575,43.499430312775075,43.75269549063187
7.565966548398137,1.243166220687647,0.7727824303292437,0.33682795862948134,7.012735813856125,0.543890704839204,10.98449681152124,121.07128094805738,7.565966548398137,0.8499553177631449,45.741804737597704,44.50945292104372
7.825490231625736,1.2652818537624766,0.7950446639151778,0.34806697985862667,7.274032623274252,0.5571612084149244,10.98375244368799,121.07584357451154,7.825490231625736,0.8723469267265913,47.98448864836246,45.288491418541085
8.08407033723779,1.2870018275935569,0.8178483324008994,0.3591274664153616,7.534497770713642,0.569272942100706,10.983056163066067,121.0804023683982,8.08407033723779,0.8868562271808706,50.22747237235308,46.087847836332486
8.341547180898488,1.308319421450111,0.8411728084611241,0.3703531301674881,7.794091126648709,0.5823211246728646,10.982409238116816,121.08492485249046,8.341547180898488,0.8978379092147865,52.47074278164655,46.906098763137464
8.59831246198155,1.329359886602703,0.8649985436059069,0.3814935015836672,8.052816472947598,0.5945905474772406,10.981812974903733,121.08944627200997,8.59831246198155,0.9119603997365718,54.71428526379168,47.742664410986784
8.85223279776983,1.3496112475087383,0.889307579229353,0.3924713820346982,8.310464299283922,0.6056640225777092,10.981268876115791,121.09399666725557,8.85223279776983,0.9288944500100257,56.95808601565659,48.5969729084101
9.10254921275191,1.3688979598849857,0.9140828201780096,0.40353026915856766,8.566770600853488,0.6171414164673512,10.980777983320877,121.09854877854907,9.10254921275191,0.9427292119109908,59.20213246997446,49.467789805563726
9.352973761968315,1.3881868715582737,0.9393076136184391,0.414645644190871,8.821869590552524,0.6287369724253847,10.980340987443924,121.10310378937542,9.352973761968315,0.9563089315554107,61.446411011740565,50.35427714344526
9.601719303289428,1.4070611596144358,0.9649666247714777,0.4258117360647831,9.075703794369474,0.6403360004305843,10.979959406191483,121.10758696586484,9.601719303289428,0.961737405102557,63.690906807780266,51.25463767237052
9.849473494337872,1.4257068704800762,0.9910453755583148,0.43688456525132113,9.328290682053193,0.6509764200480332,10.979634166811593,121.11212883440074,9.849473494337872,0.9808354427252807,65.93560240976512,52.16984308686099
10.09459899761714,1.4437130116171295,1.0175303810101468,0.4480777274597479,9.579482572386041,0.6621243501488369,10.979366829036735,121.11667717438259,10.09459899761714,0.9941499996613478,68.18048462923616,53.098466082178746
10.338946440955624,1.461551450461581,1.0444085425406229,0.45917068872093303,9.829332119086757,0.6722309661689673,10.979158097063191,121.12128027699443,10.338946440955624,1.0125169515333166,70.42553840763867,54.04049329500352
10.580595165723935,1.478743867325364,1.0716677407326642,0.4704073480558631,10.077694887062535,0.6830047189379151,10.979009334929287,121.12581030022581,10.580595165723935,1.0165602189530907,72.67074972949922,54.99347935437916
10.823199713602662,1.4961987016118303,1.0992961299198214,0.4816434979730099,10.324806828983128,0.6933502723147706,10.978920945082791,121.13027269170085,10.823199713602662,1.020691827575733,74.91610009409487,55.956877039654344
11.061665181070566,1.5126087507838248,1.1272829451190773,0.4927765771054286,10.570371068781242,0.7026282284395488,10.978894571191631,121.13478150232673,11.061665181070566,1.037706118620531,77.16157007496804,56.93175391809183
11.299038182245567,1.5286726979982375,1.1556176165759098,0.503915759088163,10.814425317803398,0.7117018917877509,10.978930839919485,121.1393233625622,11.299038182245567,1.0529343985489117,79.40714528691024,57.91737281198134
11.5374642603565,1.5448742504948336,1.1842900802148506,0.5151177468898457,11.057218445464969,0.7209458935016043,10.97903077607043,121.14388148941079,11.5374642603565,1.0660941394806187,81.65280990023166,58.91297178264592
11.77317876345478,1.5602368837247287,1.2132910709187854,0.5264692876363066,11.298598293215036,0.7308816381290673,10.979195962892845,121.14844124089954,11.77317876345478,1.0774908223661477,83.898546542041,59.91784530119106
12.008710175286978,1.5753550104380987,1.242611521447543,0.5377553490653734,11.538681099424139,0.7399072368179497,10.979426956619136,121.15301225168967,12.008710175286978,1.0897972702518672,86.14433793257922,60.93168055217121
12.246804834110662,1.5909750887268364,1.2722430727735627,0.5491218154884067,11.777846233919263,0.7491443030654321,10.979725058656186,121.15758108698431,12.246804834110662,1.1003916272741339,88.39016629941761,61.9538385903848
12.48005118733272,1.6054012895356322,1.3021781301067676,0.5605507104417493,12.015694321831688,0.7584101754038193,10.980092295794748,121.16214364023365,12.48005118733272,1.1104883379587855,90.6360122449696,62.98384672871164
12.710622461512685,1.619259742604637,1.332408950838726,0.5720165325678896,12.252083457773551,0.7675011007969887,10.980528565123677,121.16670055962408,12.710622461512685,1.1203233686529515,92.88185771740973,64.02132885581483
12.944774307310581,1.6341596644269374,1.3629279736196622,0.5835466151354417,12.487511705374345,0.7766133976808764,10.981034352094866,121.17122028550928,12.944774307310581,1.1260002852624202,95.1276841238141,65.06542334045542
13.172971321735531,1.6478878218726432,1.393728536349954,0.5949217046351463,12.721474025398493,0.7842024953578908,10.981611918192357,121.17578611817619,13.172971321735531,1.1421007528013083,97.37346983514726,66.1171086226694
13.397836786229163,1.660998394629116,1.4248037706420291,0.6061984614818929,12.953778238967061,0.7909007671287868,10.982260982156731,121.18029243942703,13.397836786229163,1.1445817958069706,99.61919827386737,67.17436973850397
13.621111724991351,1.6738095242791684,1.4561468221945688,0.6176917878845946,13.184425727464259,0.7990457578245831,10.982981355395168,121.18480317620389,13.621111724991351,1.154862327289986,101.86484835855663,68.23793063409008
13.849976819008589,1.6879210419218391,1.4877509556536097,0.6291535333228181,13.414136270061135,0.8066109932714047,10.98377393942792,121.18931051346445,13.849976819008589,1.163990058188373,104.11040095612407,69.30737421248755
14.078546037431806,1.7018490925060212,1.5196106362564024,0.6409215765998082,13.642969050444663,0.8160750870574094,10.984641737886705,121.1938902904155,14.078546037431806,1.1831018213575077,106.35583439096808,70.38366399468006
14.303984489757568,1.7148647064564704,1.5517204380885232,0.6523837380870369,13.870694309938699,0.822739406234749,10.985586187336594,121.19842776201764,14.303984489757568,1.1872776948325652,108.60113052651286,71.46465285318808
14.520847270265222,1.7257810358967813,1.5840751887881197,0.6639221878585301,14.096560417674482,0.8298064217882987,10.986607047962025,121.202903368031,14.520847270265222,1.1885303849814648,110.84626745805144,72.54977448613599
14.742340911179781,1.7377825557943318,1.6166689087403938,0.6757635962273129,14.321212039794773,0.8388096500891237,10.987702474929392,121.20749480377418,14.742340911179781,1.2128693678115967,113.09122416377068,73.64175094044067
14.962425416335464,1.7495980456417293,1.6494964167941362,0.6877752539103832,14.544625766575336,0.8484382145675662,10.988875883514993,121.21203568493287,14.962425416335464,1.2153003256455253,115.33598291687667,74.73757677014933
15.18084729788825,1.7612851069925843,1.6825527700711973,0.6994907142798235,14.766755227465183,0.8552134294518738,10.990127312019467,121.21654838190358,15.18084729788825,1.2204902826286714,117.58052075281739,75.83742256211579
15.394530809018761,1.7722223157923407,1.7158333534607664,0.7113956499638144,14.987250832375139,0.8631393535859957,10.991457393742166,121.22113003380316,15.394530809018761,1.238675960103407,119.82481547631323,76.94273016973916
15.610176770016551,1.7838798802906168,1.7493331304867752,0.7232365436870974,15.20646862918511,0.8701577527892331,10.992865910171531,121.22568075462573,15.610176770016551,1.2430937467340049,122.06884921900928,78.05161493064529
15.82409245800227,1.7953327009372104,1.7830476998351514,0.7351600896765841,15.424359700176865,0.8774843120324707,10.994354277499951,121.23030564385571,15.82409245800227,1.2618726491139114,124.31259863264859,79.16568913530811
16.030927933752537,1.8052854444887938,1.816972688829992,0.7470932088895662,15.640345296822488,0.8845178780639995,10.995923383627087,121.23487686836701,16.030927933752537,1.2630352323132752,126.55604487657547,80.28259428278155
16.243225620593876,1.816472863208547,1.8511033515096642,0.7590718860794208,15.855158865917474,0.8915584728856591,10.997571084299125,121.23943713661785,16.243225620593876,1.2696718681299664,128.7991656716913,81.40290772774516
16.453896017745137,1.827243101949101,1.8854357657837681,0.7708888727511617,16.068751722108573,0.8970695367127793,10.999300682218745,121.24404095137434,16.453896017745137,1.2840670415614188,131.04193746298552,82.52741621663844
16.661852287128568,1.837378137969312,1.9199661639286205,0.7829421787513984,16.28097129194066,0.9042442063944995,11.001112849917263,121.248660521645,16.661852287128568,1.2944995758584645,133.28433974087238,83.65549041541932
16.866627167910337,1.8468187461215875,1.9546905918978155,0.7948855947278427,16.49163404898718,0.910212772540629,11.003007449093275,121.25317355251696,16.866627167910337,1.287463553264527,135.52635109238327,84.78487208486843
17.06934374338016,1.8558613937536863,1.9896051941323094,0.8069293904579656,16.700686891097575,0.9167369754179818,11.004983696038835,121.25770711335709,17.06934374338016,1.2982062763867626,137.76794587820768,85.9176513034663
17.27451974945143,1.865552005789346,2.024706096679438,0.8190318697534942,16.908534147311002,0.9233945651972906,11.007042298675515,121.26227223541925,17.27451974945143,1.3104293571560843,140.00910297967494,87.05389307778152
17.474977941717952,1.8743470656195906,2.0599899138323963,0.8310928726265882,17.114822070579976,0.9294047115492244,11.009185299510136,121.26679656405724,17.474977941717952,1.312280233175878,142.24980023130774,88.19220919423942
17.680251692887396,1.8843204751603264,2.095453088346403,0.8432644807677795,17.32018561149016,0.9360091848629258,11.011411415529437,121.27134523712806,17.680251692887396,1.3233144446890692,144.49001439474523,89.33363379343488
17.8803479061462,1.8932707557909718,2.131092649360653,0.8554679449986807,17.524197205435485,0.9425034868165955,11.013723924290389,121.27589620604692,17.8803479061462,1.3312903074689828,146.72972221672535,90.47766788602702
18.0786959878169,1.9019201916712876,2.1669053767691366,0.8677732551980707,17.726814987603575,0.9494246068536744,11.016121527529322,121.28041576042531,18.0786959878169,1.3340586518303037,148.96890155412257,91.62361346529987
18.27570774545893,1.9103372118248896,2.202888078347314,0.8803142201258736,17.92804265022278,0.9576943359072089,11.018604260403663,121.2849706088476,18.27570774545893,1.3465438631043876,151.20752857252955,92.77255540515766
18.468707563355565,1.9179424486843324,2.239037611987442,0.8923164910529133,18.12761621410027,0.9612257678525693,11.021172789973207,121.28946099152436,18.468707563355565,1.3441196456441713,153.4455816540867,93.92262708118453
18.667224335018545,1.9268525732576032,2.2753509686444886,0.9046016958848423,18.32625017873943,0.9670666575711004,11.023825799580663,121.29397565307958,18.667224335018545,1.3547134683590918,155.68303622305393,95.07532339656025
18.85840617166832,1.934403559197711,2.3118254908476956,0.9170740412849088,18.523303458932787,0.9740685508608989,11.026567049790174,121.2984820174233,18.85840617166832,1.3605842148884315,157.91986864432693,96.22997511470903
19.05664525507018,1.9437497899281175,2.348458124732133,0.9293990139868099,18.719638283830136,0.9794723949489191,11.029394029639661,121.30302343872623,19.05664525507018,1.3726976795700916,160.1560566406697,97.38727430659866
19.252171551343054,1.9528984730365524,2.385246694320813,0.9417135702850712,18.915053338278085,0.9846027942989142,11.0323110219324,121.30762700241264,19.252171551343054,1.3891506025818907,162.3915762398392,98.54762156618125
19.43473202176392,1.9597239573101366,2.42218886007322,0.9541499942526571,19.108342388179153,0.9905112109126721,11.035317871836014,121.3121473738938,19.43473202176392,1.383428418207546,164.62640606611967,99.70833012787048
19.62341604521498,1.9681911584708023,2.4592813606141135,0.9668464002751537,19.300328985322267,0.9981010879683747,11.038408741704188,121.31669471949805,19.62341604521498,1.3939492659490917,166.86052233539522,100.87131611524596
19.809314584359527,1.9763258073490788,2.496521614608355,0.9793094289504086,19.490863723680377,1.003286085180668,11.04158783215098,121.3211990636225,19.809314584359527,1.3938918546603376,169.09390173479915,102.03524899990894
19.990520518738776,1.983628239832383,2.5339071505586617,0.9917882599656435,19.67962086154148,1.0084042846128416,11.044854323845357,121.32581851824509,19.990520518738776,1.4180831806612255,171.32651962712407,103.20291511882586
20.171231427695602,1.990875068200672,2.5714352166396566,1.0043392106583107,19.866727402899414,1.0138898001500658,11.048207618296146,121.33041223334259,20.171231427695602,1.4203969071167943,173.55835798569024,104.37169456151085
20.35395648283884,1.9985204098483385,2.6091032057302073,1.0169153077832147,20.0525487116538,1.0193049687824332,11.051647526561283,121.3348835454141,20.35395648283884,1.4074777095574569,175.78939263150096,105.53978465369555
20.538693563081324,2.0066022025423536,2.646908857685048,1.0295407480071275,20.237413441296667,1.024842126264747,11.055175291956402,121.33945255208381,20.538693563081324,1.4290046356272101,178.01959539204836,106.71112543334971
20.7270130882971,2.0155068180147717,2.684850196179468,1.0421856553451445,20.421774515416473,1.030243010111417,11.058793859905563,121.34395050435616,20.7270130882971,1.4240687388232993,180.24894574657083,107.88258987997638
20.904867727309465,2.0223898074062725,2.722925624868367,1.0548477584139533,20.604634860996157,1.0355116720872795,11.062504918314517,121.3485771278588,20.904867727309465,1.4506901615071688,182.47741580568254,109.05775642197625
21.07844523852691,2.0285882672802056,2.761132863641251,1.0674859534587797,20.785715946927667,1.0403449112320637,11.066305174375884,121.35304746399096,21.07844523852691,1.4318690445724214,184.70498843863606,110.23137935371881
21.255291774403304,2.035697441049996,2.799469494551886,1.0803918030927162,20.965521740261465,1.047077984342005,11.070191673818044,121.35759243009753,21.255291774403304,1.4495312930511746,186.93163548596203,111.40763012570903
21.429349928162992,2.042416565038942,2.837933425384108,1.0930694634656102,21.143900538329035,1.0515031358422964,11.074168044840917,121.3622140606555,21.429349928162992,1.467594522348712,189.15733581781387,112.58648652313977
21.6063551469706,2.0498302351419473,2.8765226487303153,1.1060261112006102,21.321288716513664,1.0579842842505685,11.078233631560579,121.36680977041884,21.6063551469706,1.4692171368599727,191.38206912577152,113.76602157954032
21.777007270604372,2.055957515088928,2.915235352702439,1.11894176010462,21.49714981438592,1.0636478199811656,11.082390101859346,121.37140009534319,21.777007270604372,1.4741652506869183,193.60581004805863,114.94656940238634
21.946047828998417,2.0616760269545034,2.954069488274399,1.1316254374365553,21.671474758069962,1.067144993569547,11.086635019513778,121.37588361120872,21.946047828998417,1.4624088584625694,195.8285361994058,116.12623596929905
22.112408697605133,2.0667261687471994,2.993023088260088,1.1443611260877253,21.84414833271876,1.071079873311896,11.090967652620748,121.38045974023362,22.112408697605133,1.4829024910209725,198.05022090673447,117.30864053060907
22.279600703623146,2.071922389064715,3.0320940607925877,1.1574114045341246,22.01541842566803,1.0774233875044572,11.095388398738578,121.38498773118773,22.279600703623146,1.4804010972626807,200.2708452027291,118.49115445762321
