coupler,coupler,$D^a [mM]$,$D^a [mM]$,$I_{islet}^a\ [pg/islet]$,$I_{islet}^a\ [pg/islet]$,$\gamma^b$,$\gamma^b$,$I_{cell}^b [pg/islet]$,$I_{cell}^b [pg/islet]$,$G^b [mM]$,$G^b [mM]$
2.696762793639209,1.0730048205154203,0.5037754067016067,0.07109649437583224,2.354414219793398,0.14252988746630568,11.004381649428979,120.98939708451607,2.594660265080165,6.631963074665221,5.436810191196855,35.35626791279979
2.9783703784341924,0.9652048359494774,0.5099341814930085,0.10084216600735137,2.6869134160806425,0.18399695982605246,11.003550823079422,120.99394452523305,2.94081486860523,2.1419363807127767,7.67241520161042,35.55948637672992
3.2582498947158456,0.925651765543086,0.5180365607520798,0.12326733450721368,3.003505992819555,0.20753212141761268,11.002273120800965,120.99850412589721,3.2112299776636064,1.0563088659951576,9.908317694207653,35.80465724017578
3.536624928470701,0.914542032935534,0.5277835322049214,0.1428428183136606,3.3084736693417653,0.22652476659157333,11.000973856076598,121.00303439034641,3.4578667128807865,0.9153829080133896,12.144662132370286,36.090813059763704
3.8134227318223566,0.9190632056144185,0.5389595272426959,0.16040991318443246,3.604797999956645,0.24198725242223465,10.999690891010687,121.0075946038237,3.6962600973783992,0.9173825916697826,14.38146011729259,36.417165377462716
4.090087610296905,0.9329006689566036,0.5514038398832781,0.17629462707709898,3.895003689453006,0.2539738515016012,10.99842830374837,121.01213355591693,3.932081455597654,0.9296744386064192,16.618710674345493,36.78246822915929
4.365623693098314,0.9523242320378469,0.5649936796689872,0.19103742745317903,4.180562483496033,0.26441843257157077,10.997187437373213,121.01668360158784,4.166335085988976,0.9440450409536489,18.856408280786127,37.18570962113126
4.6396248346427456,0.9749470219837941,0.5796303892420838,0.2051222667479521,4.4623852845979854,0.2750011739678946,10.995969510287978,121.02122614786221,4.399038045492489,0.9578657127026678,21.0945479311049,37.62558676819713
4.910768695524894,0.9990674564296593,0.5952321739750914,0.2186698657194101,4.740715092862956,0.2852379564594074,10.994775661383756,121.02574178931374,4.629269877623301,0.9708271860019033,23.33312360360287,38.10070721888898
5.180565510760061,1.0239848039092672,0.6117289401154267,0.23161616429934387,5.016176753910258,0.2939797431533969,10.993606896023266,121.03026097027293,4.85781168640824,0.9853396660969442,25.57212849520147,38.609941679848916
5.450484990957193,1.0494847382358374,0.6290613020246383,0.24438863701364288,5.289649978629313,0.3039003685217358,10.992464322829619,121.03476594225526,5.085926691710483,0.9992463766527477,27.811556422151625,39.15183897512512
5.718994796741754,1.0749883385175463,0.6471787199261598,0.2568020846440889,5.561292175436392,0.31264835695561427,10.991349125164561,121.0393245984334,5.31292129913345,1.0170426929754957,30.051399884279817,39.725570500436945
5.9859256179770455,1.1002263054613335,0.6660368451412069,0.2689730667740691,5.831163730821572,0.3210789332098854,10.99026250001043,121.04381306099701,5.538469011313282,1.0285306481849947,32.29165370669216,40.32882886239588
6.251774207456037,1.1251552549532644,0.6855958265368827,0.2809601232089224,6.099456886178814,0.32933325470855646,10.989205335383303,121.04835269012823,5.76281967171235,1.0464936528071462,34.53230797685683,40.9612793547688
6.51723722810857,1.1498484244351632,0.7058200824976666,0.2930443278081048,6.366516052978113,0.33928405411891244,10.988178849220276,121.05288579416039,5.9865360296098515,1.0619125911540366,36.773356857243925,41.62112546332565
6.781154379015788,1.173973071852034,0.7266778404446086,0.304697566881324,6.632235054159537,0.3457168464649261,10.987184092751704,121.05747511688162,6.208974770561326,1.0811173075413254,39.014791924040765,42.30767841521156
7.044685694621876,1.1977520637776833,0.7481404544232646,0.31629845620890007,6.896888082148507,0.3530240065693329,10.986222170991823,121.06201270383953,6.430755035602488,1.0942278554124194,41.256606901530176,43.01864501770783
7.305347939953208,1.2205834039951482,0.7701817243505502,0.32786049367294123,7.159922821680084,0.3606424252980084,10.985294010606594,121.06657889604641,6.650324383866973,1.1119560999538436,43.49879112839699,43.753609934392756
7.565966548398137,1.243166220687647,0.7927764418127481,0.339388514967109,7.421800840180367,0.36824338010951513,10.984400566201657,121.07115479833419,6.869195024599321,1.1290338708022905,45.74133701296523,44.51121104020283
7.825490231625736,1.2652818537624766,0.8159023013140541,0.3508397962811014,7.682530382880941,0.3752752648724321,10.983542858390138,121.07575880246277,7.087084817118011,1.1474486089900677,47.98423558427021,45.290525424375474
8.08407033723779,1.2870018275935569,0.8395386970078107,0.36216088636934446,7.942163097439334,0.3813528812467165,10.982721909764223,121.0803432438936,7.30401518358849,1.1629827719473913,50.22747833421454,46.089932106265955
8.341547180898488,1.308319421450111,0.8636666031670757,0.3735531075956408,8.200687644304708,0.38857978786520997,10.981938609620556,121.08492013908777,7.519880872685462,1.1791667514726536,52.47105473233387,46.908521587897944
8.59831246198155,1.329359886602703,0.8882680813840125,0.3846571549630358,8.458214081590995,0.3929379902055511,10.981193918152712,121.08952613981931,7.734924645279534,1.198048940313984,54.71495444420725,47.74573960160569
8.85223279776983,1.3496112475087383,0.9133269001322333,0.39591608961333935,8.714179690228775,0.39979860546407875,10.980488875997253,121.094089242921,7.947726089973003,1.2122926513747985,56.95916815660894,48.59975499454992
9.10254921275191,1.3688979598849857,0.9388264663575683,0.4072325384880225,8.967963391449302,0.4068954243521342,10.979824034147896,121.09872198996011,8.157327924272977,1.2341103581109178,59.20368400309235,49.4710790042194
9.352973761968315,1.3881868715582737,0.9647503855812829,0.41873741734377007,9.220244379714131,0.4152729805249008,10.979200077592395,121.1033036748643,8.366041555185802,1.248052269867043,61.44849433656782,50.357311916522775
9.601719303289428,1.4070611596144358,0.9910842979152221,0.4300299979977971,9.470962356077507,0.4203386288401202,10.978617652785033,121.10789428058095,8.573309509200044,1.2656815360369649,63.69358626566827,51.25841841134374
9.849473494337872,1.4257068704800762,1.01781491615111,0.4413803496936196,9.720281554851681,0.42626505471866194,10.978077617939562,121.11250672400033,8.779446066822857,1.2846823644688263,65.93894906155765,52.173804400673674
10.09459899761714,1.4437130116171295,1.044929670606507,0.45271192862520526,9.967826154083014,0.4317724584032035,10.97758081369102,121.1171496078865,8.983399523305707,1.3045639504879794,68.18457214068621,53.10286347834627
10.338946440955624,1.461551450461581,1.0724162125552539,0.46411640642039587,10.213888499652967,0.4378996178732298,10.97712781932205,121.12181343436538,9.186149937100708,1.3238993994271797,70.43044527433813,54.04477985857601
10.580595165723935,1.478743867325364,1.10026322354679,0.4755630496293525,10.458097354974598,0.4439571222863819,10.976719354861416,121.1264547252582,9.38664700742811,1.3400078222622962,72.67655744310468,54.99829062289479
10.823199713602662,1.4961987016118303,1.1284594945900608,0.48678509704819184,10.701289461459965,0.4471588752630048,10.976355803315528,121.13107681045192,9.587133956025355,1.356084706150693,74.92289613932371,55.96282364407913
11.061665181070566,1.5126087507838248,1.1569957146421075,0.49815376444436515,10.942522176541388,0.4526748660587625,10.976038122316822,121.13575256024214,9.784717486123554,1.377848659831347,77.16944823972881,56.938852381663565
11.299038182245567,1.5286726979982375,1.1858614509983454,0.5094881590044802,11.182050034636632,0.45739079250748405,10.975766790215857,121.14041498900416,9.98066240712069,1.3950010150425811,79.41620382200927,57.924849429580824
11.5374642603565,1.5448742504948336,1.2150472977082245,0.5207037618869113,11.420695012668148,0.4607308028234071,10.975542203173973,121.14510259040219,10.176850180374458,1.4147775056292262,81.66314999666065,58.920867677458965
11.77317876345478,1.5602368837247287,1.2445453894033562,0.5325266780997124,11.657903254264966,0.47106134582951625,10.975365431513637,121.14971224846511,10.371210145764053,1.4268274787050157,83.9102746816352,59.92486864918465
12.008710175286978,1.5753550104380987,1.2743470790737774,0.5440385911737724,11.894046196481213,0.47507165594094297,10.975236685480922,121.15433627737559,10.564891208079644,1.4454388078276212,86.15756228473037,60.93778855006835
12.246804834110662,1.5909750887268364,1.30444524216,0.555614628879329,12.13020743895322,0.47989962495859273,10.975156927597709,121.15897904721214,10.760160685400479,1.4650641138577347,88.40500022098422,61.959259533601454
12.48005118733272,1.6054012895356322,1.3348340247466695,0.5672579652350823,12.364922409877181,0.4851386566729414,10.97512750106398,121.16358740892738,10.95251083187759,1.4806801900146802,90.65257514826953,62.98804705069604
12.710622461512685,1.619259742604637,1.3655060673772823,0.5787764984339623,12.59781801654026,0.4884391973965372,10.975148418801837,121.16828743074605,11.142110778368078,1.5060475532377826,92.90027263760567,64.0257330877072
12.944774307310581,1.6341596644269374,1.3964539902226534,0.5903927071027716,12.830509840045124,0.4931492529741347,10.97522018989548,121.17295575255987,11.333390390500426,1.52238797414849,95.14808284118772,65.07000843278556
13.172971321735531,1.6478878218726432,1.4276724348310381,0.601704901864582,13.061268473509699,0.4940621836041408,10.975343809579499,121.1777056954723,11.521003979025409,1.547222892464512,97.39599005877972,66.12232677842015
13.397836786229163,1.660998394629116,1.4591545076691546,0.6134079104993684,13.289670202415437,0.5007677373284231,10.975519466097467,121.18235975651231,11.705184345366433,1.5583934364387608,99.64398382045329,67.17951994787832
13.621111724991351,1.6738095242791684,1.4908927165379282,0.6251392236454361,13.515941309276968,0.5062666129947646,10.975746541284025,121.18709916317275,11.887220181524754,1.5830694106275913,101.89204716216773,68.24420341817178
13.849976819008589,1.6879210419218391,1.5228804132493678,0.6371215130114696,13.74239435698837,0.5136480977356763,10.97602574841585,121.19182198344706,12.072524799616076,1.6006490175223476,104.1401695124805,69.31442889810043
14.078546037431806,1.7018490925060212,1.5551135723653715,0.6488248821497581,13.968882614281029,0.515994420603618,10.97635856072884,121.19654860091839,12.258602090878412,1.6194355952842845,106.38833490200341,70.39025299351208
14.303984489757568,1.7148647064564704,1.587588416703511,0.6605974386317823,14.194452681113034,0.519737123949905,10.976746075320989,121.20131519217827,12.442719032638706,1.641406715933389,108.63652837462723,71.47200867509251
14.520847270265222,1.7257810358967813,1.6203000423847698,0.6722722606831457,14.416803995147347,0.5222275350428427,10.977188671939075,121.20609980033372,12.620244463905692,1.6618750877278121,110.88473672792315,72.55908426037064
14.742340911179781,1.7377825557943318,1.653241457126569,0.684154959433592,14.638288161717355,0.5275512101107718,10.97768512647599,121.21088868119213,12.79903378430754,1.680959596310885,113.13294713012874,73.65101847076134
14.962425416335464,1.7495980456417293,1.6864081597304903,0.6961484215854168,14.858739652205259,0.5331521462503885,10.978236529743299,121.21567416188476,12.977215783903375,1.699385956159086,115.38114446029067,74.74746102530092
15.18084729788825,1.7612851069925843,1.7197957272292115,0.7084162401075081,15.077966604847461,0.5407752585189854,10.978843438322656,121.22058875756254,13.154051863821223,1.7288137332065054,117.62931351922452,75.85042842457632
15.394530809018761,1.7722223157923407,1.7533996327547356,0.7204195361305985,15.294912217650563,0.5431676454452585,10.979506647097878,121.22540097115072,13.327167615061626,1.7400239634453287,119.87744393385947,76.95580523167696
15.610176770016551,1.7838798802906168,1.7872147280722857,0.73265995715422,15.51084669539705,0.5487462492905009,10.980224981089123,121.23024731325147,13.500541422283277,1.7609231081763965,122.12551740556955,78.0657276939463
15.82409245800227,1.7953327009372104,1.821236963442061,0.7447906249264724,15.725551853422076,0.5518506497874349,10.98099964368157,121.23499998529792,13.672782142879441,1.7720385232842117,124.37351980060339,79.17783750790771
16.030927933752537,1.8052854444887938,1.855462399253156,0.757025450188561,15.937269817572087,0.5562018484027224,10.981830584001727,121.2398438638905,13.839727647369727,1.7978133375565564,126.62143242917955,80.29513564674497
16.243225620593876,1.816472863208547,1.8898854656727053,0.7689587278654302,16.14853306626901,0.5563434648942368,10.982717381906696,121.24467830519525,14.008909258525819,1.8163634332269312,128.86924439668655,81.41572588470684
16.453896017745137,1.827243101949101,1.9245032687904313,0.7811310585673988,16.358987278304994,0.5607531079166848,10.983661156729795,121.24953471674908,14.17762384773232,1.8370269695533157,131.1169393043965,82.53999654114314
16.661852287128568,1.837378137969312,1.959312408522237,0.7933504520993487,16.568058899138123,0.5649891870878894,10.984662534086965,121.25441471670766,14.344299918971956,1.8580603586397795,133.36450225301087,83.6678278983185
16.866627167910337,1.8468187461215875,1.9943092089961283,0.8053944646240897,16.775206182617694,0.5664551325863713,10.985721521312371,121.25931130700067,14.508139126934111,1.8785430803656489,135.61191871389747,84.79895837687457
17.06934374338016,1.8558613937536863,2.029489701439161,0.8177000256263112,16.980386736337095,0.5717544565837708,10.986837787204422,121.26429593450692,14.66968831862323,1.904977821453015,137.85917413420975,85.93450036033718
17.27451974945143,1.865552005789346,2.0648498043301515,0.8297415569820926,17.184926669113338,0.5726010144217667,10.988011447247118,121.26926404491967,14.832274154759943,1.9231503264169723,140.10625648498535,87.07249260256175
17.474977941717952,1.8743470656195906,2.100386935926508,0.8422493676666841,17.387600739486516,0.5800492313256108,10.989243129151873,121.27425689350179,14.99187071970664,1.9441359921497765,142.3531489316374,88.21354086456209
17.680251692887396,1.8843204751603264,2.136097225069534,0.8546855761542601,17.590411976445466,0.5842545115255456,10.99053252954036,121.27923906826624,15.153943819459528,1.9623675981849122,144.59983724355698,89.35690767188288
17.8803479061462,1.8932707557909718,2.1719788704649545,0.8672254954941215,17.791764202993363,0.5889854437249251,10.991881038295105,121.28423765314744,15.313138213474303,1.9827377842292844,146.84630438312888,90.50296262530712
18.0786959878169,1.9019201916712876,2.2080286811105907,0.8795552641380229,17.99156913580373,0.5901489772945844,10.993288335972466,121.28921891726593,15.47024814481847,2.0004286022810107,149.09253531321883,91.65100561591406
18.27570774545893,1.9103372118248896,2.244243587309029,0.8920493818683995,18.18988830083981,0.5940737953116068,10.994754138751887,121.29418808293701,15.62580033717677,2.018310667157109,151.33851381205022,92.80103405066014
18.468707563355565,1.9179424486843324,2.2806204828084446,0.9046215282672636,18.385962498839945,0.5982994988798253,10.996278472826816,121.29916479670959,15.778080092044547,2.0378728674652082,153.58422368951142,93.95330536939214
18.667224335018545,1.9268525732576032,2.317155796859879,0.9171649739375298,18.58211896987632,0.6013471096424644,10.997860771021806,121.30415864818706,15.933243449078873,2.0583638779214333,155.82965002581477,95.10790129580155
18.85840617166832,1.934403559197711,2.3538479434209876,0.9297569037473745,18.77613118616864,0.6047542160568854,10.999502738355659,121.30921186491653,16.084141090279445,2.0826073497091757,158.07477662339807,96.26548616389591
19.05664525507018,1.9437497899281175,2.3906935772974975,0.9424704613212955,18.970758359413594,0.60922163738559,11.001203507068567,121.3142628429434,16.238702952861786,2.1019371571816747,160.31959044001997,97.42487005076543
19.252171551343054,1.9528984730365524,2.4276915718219243,0.9550549093768951,19.165001079905778,0.6111222243463114,11.00296481011901,121.31931713397519,16.39246917073615,2.121415986564277,162.56407416798174,98.58607247135308
19.43473202176392,1.9597239573101366,2.4648401383892633,0.9677960267557781,19.355083640199155,0.6152775168486151,11.00478691922035,121.32436060216081,16.53692487278022,2.1397323261332635,164.80821147933602,99.74876433480432
19.62341604521498,1.9681911584708023,2.5021345245768316,0.9803854004359619,19.544090187177062,0.6166795674812771,11.006666677538306,121.32939981694255,16.68287839088589,2.1583419512332562,167.05198786780238,100.9129989633724
19.809314584359527,1.9763258073490788,2.539572555862833,0.9931251834557672,19.73150671692565,0.6204631471178023,11.008605200913735,121.33443907221083,16.82733608689159,2.1774049600303975,169.29538688622415,102.07878475743432
19.990520518738776,1.983628239832383,2.577151601028163,1.005780338304724,19.916401646099985,0.6224717825236159,11.01060242683161,121.33943528235628,16.96806508791633,2.192871026688836,171.53839289210737,103.24527791790506
20.171231427695602,1.990875068200672,2.6148684964864515,1.01855806796662,20.09938196511939,0.6261723437518995,11.012657168670557,121.34454463238671,17.10733406455256,2.221155954665564,173.7809892334044,104.41525111884387
20.35395648283884,1.9985204098483385,2.652720518351998,1.03124437496532,20.281625606585294,0.6280023155141814,11.01476998324506,121.34970259500285,17.247580239083618,2.245137462754505,176.02316471934319,105.5874586283159
20.538693563081324,2.0066022025423536,2.6907059482182376,1.0440105898977072,20.463956331368536,0.6310517775900143,11.016941521200351,121.3549400378908,17.38953346456401,2.2713761146623206,178.26490493305027,106.76239589772058
20.7270130882971,2.0155068180147717,2.7288236262393184,1.0569035010670838,20.647422121372074,0.635297682528626,11.01917310000863,121.36017451421876,17.534512149635702,2.290988095705014,180.50619626045227,107.93849533086876
20.904867727309465,2.0223898074062725,2.7670731660327874,1.0696935373385377,20.828542463947088,0.6372406990338878,11.021466116886586,121.36530605162952,17.67307887226343,2.3017313108062143,182.74702133983374,109.11388079698867
21.07844523852691,2.0285882672802056,2.805451785621699,1.0825909615948663,21.006737088318914,0.6406872555453904,11.023817891487852,121.3705038642967,17.80673407902941,2.325753815418567,184.98736148513854,110.29160749331857
21.255291774403304,2.035697441049996,2.8439562748535536,1.095315635506104,21.183863959740847,0.641283924383916,11.02622753137257,121.37571676707721,17.94121043686755,2.346609173980255,187.22720438614488,111.47068479785608
21.429349928162992,2.042416565038942,2.8825848856940866,1.1082291628935175,21.359406175557524,0.6450667306066481,11.028695652377792,121.3810564861016,18.073987730778754,2.3765333178525636,189.46653471514583,112.65310696389498
21.6063551469706,2.0498302351419473,2.921335419814568,1.1211220522988052,21.534723012242466,0.6477355335159647,11.03122247743886,121.38623810021208,18.208324920386076,2.3835541953862425,191.70534162409604,113.83359238073315
21.777007270604372,2.055957515088928,2.9602067465311848,1.134128723067255,21.707975711207837,0.6515750353825326,11.033807814936154,121.39148449457092,18.33868971443735,2.407141493277835,193.94360302202404,115.01620717740653
21.946047828998417,2.0616760269545034,2.99919645691989,1.1469515045244516,21.87929980829358,0.6521540282932736,11.036451309919357,121.39674776143491,18.46674178726971,2.4281675621863004,196.18130644597113,116.20002301179136
22.112408697605133,2.0667261687471994,3.038302371802274,1.1598360918887303,22.048469446133822,0.6542533734245447,11.03915221162606,121.40204660410407,18.59223151137121,2.450505780083478,198.41843749955297,117.38534260155103
22.279600703623146,2.071922389064715,3.0775221092044376,1.1729923683172576,22.216380103025585,0.6597994664172917,11.041909864055924,121.4073174871614,18.71754178730771,2.4676835176293594,200.6549826655537,118.570954640349
