coupler,coupler,$D^a [mM]$,$D^a [mM]$,$I_{islet}^a\ [pg/islet]$,$I_{islet}^a\ [pg/islet]$,$\gamma^b$,$\gamma^b$,$I_{cell}^b [pg/islet]$,$I_{cell}^b [pg/islet]$,$G^b [mM]$,$G^b [mM]$
2.696762793639209,1.0730048205154203,0.5037754067016067,0.0708694073660513,2.550041976326611,0.14151256543806992,11.004381649428979,120.98941475712927,2.526591913512675,11.037148615676577,5.436810191196855,35.35628550575857
2.9783703784341924,0.9652048359494774,0.5111174353369279,0.10026628287159058,2.912148571398575,0.16512037882238872,11.004474733490497,120.9939881916566,2.8817436860117596,5.656232430140243,7.672434656764381,35.55963952406337
3.2582498947158456,0.925651765543086,0.5204196820122888,0.12314006392214319,3.2166343013523147,0.17767023792847475,11.003519694786519,120.9985285493896,3.1503455673810095,3.1427219335519543,9.908100832253695,35.80490042843118
3.536624928470701,0.914542032935534,0.5311919626110466,0.14246319187990805,3.5027638556202874,0.1859107221066476,11.002320271683857,121.00303695499608,3.374921369657386,2.1256488479348286,12.144119868753478,36.09116274670326
3.8134227318223566,0.9190632056144185,0.5432246462005423,0.16014095563107342,3.7822699366370216,0.19593051231568284,11.00107443286106,121.00757959221347,3.5766882706666365,1.8090918114242702,14.380570157896727,36.41764640094137
4.090087610296905,0.9329006689566036,0.5563922599394573,0.1760665182978677,4.059685223270208,0.2018471842666785,10.999830466113053,121.01213991274199,3.7669749096385203,1.7367736114981556,16.61747215804644,36.783247585747375
4.365623693098314,0.9523242320378469,0.5706068919680547,0.19117116605234666,4.335673466674052,0.21012250814826483,10.998600103077479,121.01659599436123,3.9509471358614974,1.7264594229172778,18.854829310439527,37.1862331597857
4.6396248346427456,0.9749470219837941,0.585793898513657,0.2054938288487915,4.6101502949604765,0.21715735064211306,10.997386245406233,121.02110536990443,4.130984697432723,1.7340354883899167,21.092635984066874,37.62613218085368
4.910768695524894,0.9990674564296593,0.6018885162629886,0.21932900803070557,4.882165410206653,0.22476330717139642,10.996190049219877,121.025712437716,4.3076164231752045,1.7470432373169427,23.330890781013295,38.10200521943572
5.180565510760061,1.0239848039092672,0.6188306243420811,0.2327616949914775,5.1524914702167735,0.23200908870366307,10.995012164697982,121.03021504082675,4.48186186759267,1.756542727357221,25.5695934551768,38.61130250089696
5.450484990957193,1.0494847382358374,0.6365694041742245,0.24553308957036232,5.422389606828801,0.23607446195434176,10.993852937710471,121.03476817627958,4.654965668392833,1.7700664397049843,27.808735969476402,39.15370096027928
5.718994796741754,1.0749883385175463,0.655063274272834,0.2583108682313842,5.691165934083983,0.24471527692065206,10.992713135434315,121.03932432310687,4.826784152246546,1.784262474046433,30.048315449617803,39.72754011612398
5.9859256179770455,1.1002263054613335,0.6742720526672201,0.2706931765692904,5.958494210266508,0.24966325816638812,10.991593360668048,121.04383359344905,4.997160886588972,1.7981630644686664,32.288327128626406,40.33107017273981
6.251774207456037,1.1251552549532644,0.6941595152020454,0.2833159239981484,6.224624601076357,0.2597004769882616,10.990494138444774,121.04839008606656,5.166266136104241,1.8157821817272795,34.52876429352909,40.96373586596276
6.51723722810857,1.1498484244351632,0.7146924805856543,0.29532907296932165,6.49012022675015,0.2616176530743101,10.989416166441515,121.05296673721486,5.33453350875061,1.8345625045900478,36.769623453728855,41.6240139299292
6.781154379015788,1.173973071852034,0.7358432249748148,0.3072338936981582,6.7543379936832935,0.2671051233280687,10.988360082381405,121.0575345148016,5.501599735987838,1.8537413758716672,39.01089983107522,42.3103528964894
7.044685694621876,1.1977520637776833,0.7575838123157155,0.3188594300143988,7.017897316021845,0.27070129419427724,10.987326424918137,121.06202772073897,5.667863300302997,1.8718452408799087,41.252587507944554,43.02083371066315
7.305347939953208,1.2205834039951482,0.7798903478396824,0.33065514007005425,7.279245983576402,0.2785994544826252,10.986315714428201,121.06659427243562,5.832281957496889,1.8954045097299845,43.49467790313065,43.755726347126235
7.565966548398137,1.243166220687647,0.8027371087227948,0.342363456390259,7.539896412752569,0.2838793021510555,10.985328609123826,121.07111521024912,5.995747486245818,1.9172929822377238,45.73716795630753,44.512616134476986
7.825490231625736,1.2652818537624766,0.8261038546625059,0.35391673659610773,7.799566623056307,0.28786704154431547,10.984365551033989,121.0756571244648,6.158180199039634,1.941860085643641,47.98004984809086,45.291084084063485
8.08407033723779,1.2870018275935569,0.8499711267941166,0.3653544241028932,8.05827814922668,0.29187326149017406,10.9834271610016,121.0803062571071,6.3196160974912345,1.970920232024764,50.22331807203591,46.09104122874049
8.341547180898488,1.308319421450111,0.874320750212064,0.37678840808623676,8.315925846574828,0.29694982798585884,10.982514147181064,121.08495180256237,6.479993456276134,1.9981352278659232,52.46697005908936,46.91018577862399
8.59831246198155,1.329359886602703,0.8991355040925555,0.3880310566125537,8.572752552339807,0.2996424790167661,10.981626894092187,121.08960228990027,6.639477316755801,2.0259761739867828,54.710999079048634,47.747620923132544
8.85223279776983,1.3496112475087383,0.9243999112513848,0.39936387973824644,8.827337878523394,0.3053343790843929,10.980765928397886,121.09423224279054,6.797083658864722,2.0538156507699576,56.95539848972112,48.60208058295476
9.10254921275191,1.3688979598849857,0.9500967515050434,0.41066271822293776,9.0787246117834,0.3096135343400752,10.97993156593293,121.09889253025358,6.951941125676967,2.0841588028956965,59.200160877779126,49.47329805295869
9.352973761968315,1.3881868715582737,0.9762085918046068,0.42203755600910564,9.329224173212424,0.31497751501129323,10.979124087374657,121.1035571524476,7.10547022765968,2.1148353985625277,61.44528081919998,50.36008656462858
9.601719303289428,1.4070611596144358,1.002722622390138,0.43342987867784943,9.578279164386913,0.31959767287995217,10.978343878872693,121.10819458006632,7.25748777075205,2.145090832667927,63.69075146969408,51.26121471920145
9.849473494337872,1.4257068704800762,1.0296259881579317,0.4449482470679875,9.826203841948882,0.32545071492109423,10.977591242524795,121.11285794876396,7.40824613312725,2.1777908739959457,65.93656477052718,52.176618119288726
10.09459899761714,1.4437130116171295,1.056906925601652,0.45656566124882203,10.071946492651477,0.3310093084928529,10.976866650860757,121.11754045062521,7.557053011492826,2.211441310801047,68.18271444458514,53.105478259698444
10.338946440955624,1.461551450461581,1.0845528330246452,0.4677860158077418,10.316487141419202,0.3298249222485009,10.976170372101478,121.12220312837172,7.704487700713798,2.244437263419463,70.42919403500855,54.046565176055054
10.580595165723935,1.478743867325364,1.1125534973398317,0.4790997725889879,10.55877535766922,0.33433893279887844,10.975502675632015,121.12683815798307,7.849879669141956,2.277507532358667,72.67599541693926,54.999110686016174
10.823199713602662,1.4961987016118303,1.1408971828350332,0.4904511234065698,10.801054389914498,0.33853088901855233,10.974863728042692,121.13155370382974,7.994721088791266,2.315129264206335,74.92311026901007,55.96404320129944
11.061665181070566,1.5126087507838248,1.1695761039445642,0.5019362628483254,11.040430869208649,0.34396691222773224,10.97425420221407,121.1362796852603,8.137210778426379,2.351768936855118,77.17053376231343,56.9397729620074
11.299038182245567,1.5286726979982375,1.1985788804886397,0.5136245262377288,11.278169529745355,0.35042334435211253,10.973674125620164,121.14105740710026,8.277971564792097,2.390176987644225,79.41825879830867,57.92635837022041
11.5374642603565,1.5448742504948336,1.2278963750286493,0.525104745578209,11.516151794465259,0.3512273979183746,10.973123769741505,121.14578659759816,8.418387782061473,2.4257013881016447,81.66627965588123,58.92179321233564
11.77317876345478,1.5602368837247287,1.257522556668846,0.5365504741920755,11.752306814072654,0.3537959097432591,10.97260340792127,121.15058761028362,8.557269397191703,2.465493621725348,83.91458645928651,59.92739323481291
12.008710175286978,1.5753550104380987,1.287448736751685,0.5481750790681463,11.987783385906368,0.3594657602975604,10.972113476018421,121.1553248291136,8.695285850204527,2.501630424637031,86.16317394934595,60.94063892952659
12.246804834110662,1.5909750887268364,1.3176679896714631,0.5598111711869496,12.224848727462813,0.36302320140921795,10.97165407706052,121.16006830869682,8.834145147935487,2.5399011106208738,88.41203165147454,61.96216562163146
12.48005118733272,1.6054012895356322,1.3481766112090554,0.5714617348533944,12.45899493037723,0.3664046044199871,10.971226001041941,121.16483069132167,8.970995742245577,2.579575118482559,90.66115110740066,62.99175639410229
12.710622461512685,1.619259742604637,1.3789655824948568,0.5829449518683127,12.690390943083912,0.36702134144320314,10.970829399419017,121.16966790710939,9.105498663382605,2.6220454875367505,92.9105248907581,64.02989785723446
12.944774307310581,1.6341596644269374,1.4100265694432892,0.5947242657470195,12.923466420732439,0.3740387220989766,10.97046442120336,121.17458029273574,9.24061240523588,2.6655415382147876,95.16014769300818,65.07623000093275
13.172971321735531,1.6478878218726432,1.4413563619891647,0.6064519312189007,13.152875693049282,0.3765979074343951,10.970131740905344,121.17944561639445,9.373048628331162,2.7050530319374033,97.41001331061125,66.12846263942787
13.397836786229163,1.660998394629116,1.472946179099381,0.6182467355671376,13.378851299639791,0.3804013977007365,10.969830986694433,121.18424903820765,9.502474945154972,2.743312791120591,99.66011180263013,67.18603212912235
13.621111724991351,1.6738095242791684,1.504787689220393,0.6301726856952286,13.60268183844164,0.385207556401602,10.969561844831333,121.18919200472033,9.62959588970989,2.7891082219274,101.9104329328984,68.25188118849556
13.849976819008589,1.6879210419218391,1.5368743123544846,0.6418927691555633,13.829780467320234,0.3850376946625787,10.969324723351747,121.1940406958853,9.758354297140613,2.8282257919760183,104.160973649472,69.3219172680805
14.078546037431806,1.7018490925060212,1.5692056894476991,0.6537192397762409,14.057650862727314,0.3890479793142549,10.969119986286387,121.19901591510944,9.887778624892235,2.874310383315732,106.41172118857503,70.39947553533295
14.303984489757568,1.7148647064564704,1.6017785183503293,0.6656678623708022,14.283559828530997,0.39368467158954096,10.96894870128017,121.2039651308356,10.015965947299264,2.9166762155527493,108.66267098300159,71.48177928922308
14.520847270265222,1.7257810358967813,1.6345868674688973,0.6776068481068004,14.502875996753573,0.39635659992176486,10.96881076018326,121.20895903220037,10.139242438483052,2.961024968667386,110.91381314769387,72.56975282121785
14.742340911179781,1.7377825557943318,1.6676203763927333,0.689800106636124,14.72345456900075,0.40275823955232015,10.968705553910695,121.21396503268942,10.262374674435705,3.004824902783825,113.16514138318598,73.66262076810831
14.962425416335464,1.7495980456417293,1.7008768295054324,0.7016806999717902,14.943424258381128,0.40087798426991184,10.968633416923694,121.21899313993791,10.384726078948006,3.0491077255081303,115.41664712689817,74.76032826120449
15.18084729788825,1.7612851069925843,1.7343525313772261,0.7135691322587435,15.16204611537978,0.40302970583085196,10.968594594742171,121.22407549459044,10.505851805326529,3.0949242623330977,117.66832219809294,75.86320484812434
15.394530809018761,1.7722223157923407,1.768042853451334,0.7255251335478884,15.376945564057678,0.4064328948965069,10.968589298776351,121.22912475354528,10.62399174424354,3.1380944558457826,119.9201596248895,76.9695727755029
15.610176770016551,1.7838798802906168,1.801941110752523,0.7377223226115367,15.592100858688354,0.4126072218060017,10.968616977799684,121.2341325526455,10.741616395651363,3.1804829592306216,122.17214975506067,78.07910682049614
15.82409245800227,1.7953327009372104,1.8360445908620022,0.7497493874254534,15.806120705325156,0.41265108175428666,10.96867781644687,121.23924928274258,10.858114860253409,3.2284065067418006,124.42428202740848,79.19419650601984
16.030927933752537,1.8052854444887938,1.8703495695372112,0.7619650940409196,16.014842643868178,0.4176869782957734,10.9687723191455,121.24439156325545,10.97050695179496,3.27480073191014,126.67655150033534,80.31323535622828
16.243225620593876,1.816472863208547,1.9048483251826838,0.774391577709625,16.225797810126096,0.423482136474958,10.96889967203606,121.24949620974004,11.083573898416944,3.3186556436008208,128.92895085923374,81.43497748677952
16.453896017745137,1.827243101949101,1.939540364430286,0.7865885579183124,16.436282955110073,0.4224778253327927,10.96906020399183,121.25463992752248,11.1961617161287,3.3648782562400257,131.18146945536137,82.5605973854765
16.661852287128568,1.837378137969312,1.9744229270727374,0.798902285162622,16.644726189319044,0.4262413902689112,10.969254327821545,121.25973776722067,11.307150242151693,3.408761731042966,133.43409959226847,83.6884742502983
16.866627167910337,1.8468187461215875,2.0094916629604995,0.8111129412216497,16.85032901307568,0.42691616994081155,10.969481778214686,121.26499306163551,11.415745913633145,3.459572865326179,135.68683066777885,84.82201246571545
17.06934374338016,1.8558613937536863,2.0447418325929902,0.8233745223270529,17.053638006094843,0.42969218424756866,10.969742809073068,121.27023187363756,11.522113740094937,3.5059384539939216,137.93965981341898,85.95803077832228
17.27451974945143,1.865552005789346,2.0801692002569325,0.8357835576368268,17.257979633752257,0.43417916817202556,10.970036781975068,121.27543478968428,11.628595142392442,3.5506647887290295,140.19257772900164,87.09606902255878
17.474977941717952,1.8743470656195906,2.1157725116354413,0.8482282079725205,17.45932787982747,0.43705602322818926,10.970363913103938,121.28066390167315,11.732772423769347,3.5973641789891238,142.44557388685644,88.23710318135953
17.680251692887396,1.8843204751603264,2.1515471964958124,0.8604607225454663,17.663148251362145,0.4357275233050759,10.970724040758796,121.28588168073458,11.838203653111123,3.6433226565812618,144.6986406184733,89.3803583865079
17.8803479061462,1.8932707557909718,2.187493444478605,0.8728163142935031,17.864085191395134,0.4394201909821435,10.971117769135162,121.29122292063069,11.94167146726977,3.694029230324579,146.95176805369556,90.52810879320563
18.0786959878169,1.9019201916712876,2.2236067973426543,0.88530572270072,18.06293275207281,0.44372348703222014,10.971545270062052,121.29647933873979,12.04328212828841,3.73865047748222,149.20495186001062,91.6765479532145
18.27570774545893,1.9103372118248896,2.2598836634424515,0.8976292237955141,18.260217458941042,0.4431722786528003,10.97200578241609,121.30181185415059,12.14329474477563,3.7875616558578304,151.45818000473082,92.82845030147213
18.468707563355565,1.9179424486843324,2.296321084315423,0.910177744405466,18.454224260058254,0.44852823497414573,10.97249952587299,121.30721193916794,12.2405013339594,3.837322184063036,153.7114465404302,93.9835629927954
18.667224335018545,1.9268525732576032,2.3329145926400088,0.9227230844879568,18.651109063532203,0.4506689155917784,10.973026057123207,121.31259156057025,12.339062481885776,3.8843168084144106,155.9647454265505,95.1402196955147
18.85840617166832,1.934403559197711,2.3696648978511803,0.9352113093883192,18.84372225869447,0.4516452713990213,10.97358580189757,121.31801994205321,12.434632672811858,3.9331762643737926,158.21806645952165,96.29957616740516
19.05664525507018,1.9437497899281175,2.406567025464028,0.9478447586279622,19.039993467275053,0.4557900954683815,10.974178329692222,121.32341949980328,12.532235465361737,3.9798930710724925,160.47140299901366,97.4601565105135
19.252171551343054,1.9528984730365524,2.443622211168986,0.9604257490311123,19.235462695360184,0.4570055523527365,10.974804321187548,121.32886160147099,12.629497757414356,4.028672370954228,162.72474425844848,98.62316827889661
19.43473202176392,1.9597239573101366,2.4808283234015107,0.9731115700881827,19.421614718157798,0.46053799648831223,10.975464150076732,121.33437969199477,12.720106719760224,4.0791963635444155,164.9780826140195,99.78913517445086
19.62341604521498,1.9681911584708023,2.5181767038884573,0.9857646279986663,19.609257630072534,0.4618973751092863,10.976156249642372,121.33989146951345,12.810450789518654,4.127377746663301,167.23141323029995,100.95649865654778
19.809314584359527,1.9763258073490788,2.5556671586236916,0.9983938964414623,19.79539756057784,0.4632040263864733,10.97688056610059,121.34534280168909,12.899269783403724,4.173254069993269,169.48472697474062,102.12421266179634
19.990520518738776,1.983628239832383,2.593297211744357,1.0109546395601303,19.977801352273673,0.46371371201960987,10.977636649622582,121.35080293388393,12.98498023697175,4.220987939141694,171.73801310360432,103.29347878387568
20.171231427695602,1.990875068200672,2.6310628069913946,1.023935075898527,20.15873739728704,0.47229801361738,10.978423963999376,121.35635546434843,13.06888945470564,4.272039637212674,173.99126401171088,104.46575750990263
20.35395648283884,1.9985204098483385,2.6689614975475706,1.036429378606695,20.340642861556262,0.4664194079089812,10.979242515051737,121.36198710844192,13.152905835071579,4.323519987179375,176.24447485245764,105.6407378696987
20.538693563081324,2.0066022025423536,2.7069930419675075,1.0491949425007003,20.524247060064226,0.47193709927676114,10.980092608020641,121.36757479314223,13.237982630962506,4.371104082616706,178.49763978645205,106.81610778658288
20.7270130882971,2.0155068180147717,2.745157291123178,1.0620405673555995,20.710868403781205,0.4752993622164097,10.980974404839799,121.37317733490767,13.325381791684777,4.419788322777634,180.75074811466038,107.9928921461043
20.904867727309465,2.0223898074062725,2.7834552501444705,1.0747648287982594,20.891069224569947,0.47508539252098075,10.981888987356797,121.37888341343007,13.408710877643898,4.471761275756039,183.00379098951817,109.17265609741307
21.07844523852691,2.0285882672802056,2.8218812363338657,1.0875204927822275,21.06634955946356,0.477045164904627,10.982835644856095,121.38453451212274,13.487867732299492,4.519380675499636,185.25676415674388,110.35243627188454
21.255291774403304,2.035697441049996,2.86043066350976,1.1004978194212804,21.242441829293966,0.4823991274735556,10.983812790480442,121.39031942539151,13.566574440337718,4.572147167599439,187.5096578411758,111.53566510920587
21.429349928162992,2.042416565038942,2.8991030211327597,1.1134153333508985,21.416825722903013,0.48329919585510484,10.984821044607088,121.39607566042048,13.643663563532755,4.620962079366839,189.76246862858534,112.71929175616708
21.6063551469706,2.0498302351419473,2.9378961829352193,1.1263397608042265,21.592759849969298,0.48489939204273863,10.98585966147948,121.40176784896121,13.721419191919267,4.667740743263144,192.01518728770316,113.90262801359313
21.777007270604372,2.055957515088928,2.9768102196394466,1.1390551718285264,21.76471170084551,0.48284112366790943,10.986928828875534,121.4074804288214,13.796333470614627,4.716811280584917,194.2678027935326,115.08719627932885
21.946047828998417,2.0616760269545034,3.015841502812691,1.152093535566543,21.93434052169323,0.4895511255401223,10.988028069143184,121.41334962411479,13.86902349605225,4.770831396303984,196.5203083343804,116.27547293408485
22.112408697605133,2.0667261687471994,3.0549874115968123,1.1650604197498096,22.101396669168025,0.49027123935076256,10.989157397998497,121.41917288123294,13.939263892592862,4.819658178082872,198.7727017942816,117.46365669693704
22.279600703623146,2.071922389064715,3.094245432119351,1.1781138306589987,22.268262694124132,0.49313634745373763,10.990315600065514,121.42501613359138,14.008697442477569,4.869363525534742,201.02497380785644,118.6529416466527
