coupler,coupler,$D^a [mM]$,$D^a [mM]$,$I_{islet}^a\ [pg/islet]$,$I_{islet}^a\ [pg/islet]$,$\gamma^b$,$\gamma^b$,$I_{cell}^b [pg/islet]$,$I_{cell}^b [pg/islet]$,$G^b [mM]$,$G^b [mM]$
2.696762793639209,1.0730048205154203,0.5037754067016067,0.07076300758780592,2.647855853952933,0.14118613921885298,11.004381649428979,120.98936222362566,2.390455209388165,19.855443098600745,5.436810191196855,35.35623320901705
2.9783703784341924,0.9652048359494774,0.5116751408932032,0.10063469138628467,2.966077829536516,0.16464087251750326,11.007714924635366,120.99385284421857,2.681919297290733,18.038706462202843,7.672470387653448,35.55963016872017
3.2582498947158456,0.925651765543086,0.5212494009028887,0.12359783861437001,3.249769366462715,0.1735385833081986,11.010244974750094,120.99840249063902,2.884167499782052,16.521288218759217,9.907295701326802,35.80524028070086
3.536624928470701,0.914542032935534,0.5321745259134332,0.14297822817832323,3.528649046900682,0.18030056694138305,11.01216316560749,121.00287273904846,3.0060066236765124,15.277449041693787,12.14153416280169,36.09187135793411
3.8134227318223566,0.9190632056144185,0.54431748209754,0.1604303217249414,3.805624189437367,0.18823695294383158,11.013618311611935,121.00739465548438,3.0553450899897143,14.281554861168932,14.375373490853235,36.41892334901919
4.090087610296905,0.9329006689566036,0.5575777666381327,0.17654110340062093,4.082285791635513,0.1957286047641401,11.014726024353877,121.01184761320812,3.039436998835299,13.506463047925218,16.60896291444078,36.784853329784006
4.365623693098314,0.9523242320378469,0.571875677400385,0.19180160842700056,4.357896969188005,0.20380820647435188,11.015575774246827,121.016255146361,2.9647051739448216,12.924523570838366,18.842413458274677,37.188511613127346
4.6396248346427456,0.9749470219837941,0.5871393919369439,0.20608904664271627,4.6320187378441915,0.2091334354770013,11.016236776602454,121.020713699984,2.83688485933817,12.508022027139981,21.07581060915254,37.62912139648207
4.910768695524894,0.9990674564296593,0.6033052392594982,0.2199111127536578,4.903417295427062,0.21654567580756773,11.016762636252679,121.02514194158563,2.6610019342042506,12.229472389438305,23.309222733601928,38.10493471600981
5.180565510760061,1.0239848039092672,0.6203127515618689,0.23312037832721047,5.17332867148798,0.22160522297953725,11.017194807296619,121.02960039065464,2.44172783443355,12.063600443913936,25.542699120705947,38.614974592691055
5.450484990957193,1.0494847382358374,0.6381125659827376,0.24622310552761284,5.443199380068108,0.22994563523451214,11.017565589747392,121.03406239096618,2.1834117385733407,11.987575130920947,27.77627859916538,39.15771541690107
5.718994796741754,1.0749883385175463,0.6566638310323469,0.258509959407874,5.711795124574564,0.23115707084138834,11.0179003237281,121.03852274633769,1.8898130315355957,11.981858542215395,30.009988932404667,39.731753017724365
5.9859256179770455,1.1002263054613335,0.6759276106604375,0.2709085487498625,5.9788401970872656,0.24007298102771546,11.018219166551717,121.04301252999007,1.5642970485641854,12.030343931720926,32.24384971242398,40.33598413880954
6.251774207456037,1.1251552549532644,0.6958664807461901,0.2831226554447703,6.2447542496956885,0.24584359521153548,11.018538484233432,121.04745028656552,1.2099414227559464,12.119927813325925,34.47787519544363,40.968397039143035
6.51723722810857,1.1498484244351632,0.7164485437533585,0.2950579356060372,6.510206346865743,0.2500779072596658,11.018871875596233,121.05198644900238,0.8295850751455873,12.240715064360268,36.712071334477514,41.629021918473896
6.781154379015788,1.173973071852034,0.7376460328378016,0.3068202810239219,6.7742192128207535,0.25487793814751497,11.01923110417556,121.05660291222776,0.42566672026441665,12.38490847615555,38.94644500641152,42.316502897852665
7.044685694621876,1.1977520637776833,0.7594311271823244,0.31868150901619274,7.037739238701761,0.26228381092387165,11.019626623834483,121.06117358266992,0.0004968937719240785,12.546687204150903,41.18099852884188,43.02843164350852
7.305347939953208,1.2205834039951482,0.781780094926944,0.33035006740952866,7.298626253148541,0.26623150903562487,11.020068076904863,121.06573094240574,-0.44409337268734816,12.721954512160254,43.4157261592336,43.76395842729762
7.565966548398137,1.243166220687647,0.8046671194315422,0.3418662884603137,7.559209181694314,0.2701691630568958,11.020564686041325,121.07033118630562,-0.9061734152346617,12.911248577916663,45.65062019135803,44.5225790969567
7.825490231625736,1.2652818537624766,0.8280726849334314,0.3533534970540558,7.818774841027334,0.27525203144028687,11.021126587758772,121.07481497159164,-1.3841104936000193,13.111822788558843,47.88567185262218,45.30151353215268
8.08407033723779,1.2870018275935569,0.851977195154177,0.36502121888299854,8.077388192759827,0.2826848414739316,11.021763775730506,121.07923774843186,-1.8764196959964465,13.32181025106494,50.120863371994346,46.100357158652464
8.341547180898488,1.308319421450111,0.876362448267173,0.3764676444642674,8.334912083810195,0.28509238607359794,11.022486288333312,121.08370125151852,-2.3817799061944243,13.54007787533201,52.35617587901652,46.919359000910376
8.59831246198155,1.329359886602703,0.9012116623052862,0.3877324785087229,8.591685368213803,0.28757549580699077,11.023304366972297,121.08814326669386,-2.8989622393564787,13.765720969491797,54.591591010801494,47.756929909163105
8.85223279776983,1.3496112475087383,0.9265094021393452,0.39903824464303295,8.84582193614915,0.29264434745605883,11.024228473426774,121.09249918084127,-3.4270733525627293,13.998104747711873,56.82708505168557,48.61146516759573
9.10254921275191,1.3688979598849857,0.9522378915280569,0.41054749545633684,9.096450161887333,0.29971765630715724,11.02526934503112,121.09677504600107,-3.965384236071259,14.23696419869496,59.06262881308794,49.48226894893396
9.352973761968315,1.3881868715582737,0.9783791131631006,0.4220418104783562,9.346823792671785,0.3038621992506135,11.026438077096827,121.10106999756565,-4.512866461998783,14.482472925718923,61.29819019790739,50.3699065294896
9.601719303289428,1.4070611596144358,1.0049215947219636,0.43345172296818335,9.595659824786708,0.3069031364730728,11.027746222913265,121.10518450942162,-5.068771935068071,14.73395287123164,63.53373740054667,51.27112959718332
9.849473494337872,1.4257068704800762,1.0318524060130585,0.444915990619125,9.84344887943007,0.31162597223811134,11.029205483966507,121.10921588347856,-5.632357391004916,14.991811484821783,65.76922800764441,52.186609517246154
10.09459899761714,1.4437130116171295,1.0591599418839905,0.4564987750340615,10.088766465196386,0.317157391970533,11.030828048475087,121.1132393680353,-6.203115995100234,15.256421135390651,68.00461973901838,53.11681553027684
10.338946440955624,1.461551450461581,1.086831172957318,0.46795878584310996,10.333135737804696,0.31927360199760696,11.032626592786983,121.11701193950417,-6.780404912191443,15.526792486769702,70.23986961506307,54.05789933437834
10.580595165723935,1.478743867325364,1.1148561522422824,0.4795727113858004,10.57498044311069,0.3250586343076007,11.034613744239323,121.12062651171799,-7.363836007192731,15.803492667085392,72.47492221277207,55.01067159019401
10.823199713602662,1.4961987016118303,1.1432229158526752,0.49105261100272446,10.817432100651786,0.32675404316065304,11.036802653572522,121.1241948045614,-7.9526923664379865,16.087153807572577,74.70972201321274,55.976289385947126
11.061665181070566,1.5126087507838248,1.171924732188927,0.502533289513069,11.056218455778435,0.3301844739530148,11.039206965244375,121.12759929053773,-8.546836114488542,16.377162811850475,76.94421373680234,56.95268494751857
11.299038182245567,1.5286726979982375,1.2009491966746282,0.5139184178305047,11.293654276058078,0.33209335978020355,11.041840419755317,121.13069378553256,-9.14583637448959,16.672761319510453,79.17833414301276,57.93737552214614
11.5374642603565,1.5448742504948336,1.230287700338522,0.5254194744635862,11.531902058282867,0.33694500871695765,11.044716720818542,121.13361896865902,-9.749088359880261,16.9748892917597,81.41201099101454,58.93210455863517
11.77317876345478,1.5602368837247287,1.2599346335919108,0.5369962288036847,11.767789907986298,0.34123422505347445,11.047850143397227,121.13633896744572,-10.356421430944465,17.283294918105547,83.6451732320711,59.93605345326416
12.008710175286978,1.5753550104380987,1.2898807429592125,0.5485145715568613,12.003276290837675,0.3434608525891265,11.051255136495456,121.13889136193978,-10.967426415532827,17.598202647307975,85.87774472683668,60.94953270004735
12.246804834110662,1.5909750887268364,1.3201196666632313,0.560144849013589,12.241028772899881,0.3481215702555116,11.05494645179715,121.14115970375158,-11.581457470078021,17.91876525312235,88.10964673478156,61.97054868519336
12.48005118733272,1.6054012895356322,1.3506483638484497,0.5716488558460436,12.474643747787923,0.34923459621986075,11.058938606991433,121.14315412271881,-12.19867145025637,18.24507207513156,90.34079229086637,62.99905406462119
12.710622461512685,1.619259742604637,1.3814564745116513,0.5834017309394713,12.705436759162694,0.3558402228447395,11.0632464698283,121.14489008878252,-12.818988824263215,18.57720847555468,92.57109105680138,64.03511266434803
12.944774307310581,1.6341596644269374,1.4125353476265445,0.5951197833389527,12.939169495832175,0.35819087813867057,11.067885192111135,121.14641825803764,-13.441708941012621,18.91548497472281,94.80044938717037,65.0793626109561
13.172971321735531,1.6478878218726432,1.4438836032932159,0.6071259169071335,13.167836281936616,0.36541450602885706,11.072870121337473,121.14770028076124,-14.067151123890653,19.259476210719743,97.02877135202289,66.13107037952685
13.397836786229163,1.660998394629116,1.475490578537574,0.6187701573944716,13.392997529357672,0.3626836352099692,11.078216773224995,121.14862499912674,-14.695336706005037,19.60822706652926,99.25595583859831,67.18837025234222
13.621111724991351,1.6738095242791684,1.5073482525767758,0.6308892761226713,13.616376185789704,0.3725695080137256,11.083940481417812,121.14917395891916,-15.326106859836727,19.961624480211473,101.48189382161945,68.25088269169233
13.849976819008589,1.6879210419218391,1.5394501312403008,0.6428130081386175,13.844607256818563,0.3722958215519565,11.090056714368984,121.14941964700652,-15.958596335723996,20.320279881529956,103.70647178031504,69.3197003484635
14.078546037431806,1.7018490925060212,1.5717977191961836,0.6547659910042648,14.07305676722899,0.375360011316305,11.096581140416674,121.14926658239592,-16.592610583873466,20.68327188283677,105.92957468517125,70.3932283770925
14.303984489757568,1.7148647064564704,1.604387128551025,0.6665762882207238,14.29870995413512,0.37570911599999246,11.103529109735973,121.14878240425782,-17.228253534529358,21.051189331683897,108.1510802116245,71.47252342730833
14.520847270265222,1.7257810358967813,1.6372116469428875,0.6784434671409595,14.516364906448871,0.3790662986993344,11.110916488687508,121.14796046999403,-17.86615843884647,21.423857442098885,110.37086488865316,72.55744938622621
14.742340911179781,1.7377825557943318,1.6702593677327968,0.6903240407603243,14.737387370318174,0.3816389927520055,11.118759532575496,121.1467093852393,-18.50556977605447,21.800359295364604,112.58880129829049,73.64650145510254
14.962425416335464,1.7495980456417293,1.7035303653101437,0.7021243945114902,14.957477935124189,0.3827064649018941,11.127073912881315,121.14501176930574,-19.146406616084278,22.1805650632184,114.80475483089685,74.73939929654003
15.18084729788825,1.7612851069925843,1.7370204314938746,0.7140617001069306,15.175978526007384,0.3872035733039181,11.135875373496674,121.14294384343371,-19.788616203004494,22.56519776886985,117.01858658157289,75.83741646908224
15.394530809018761,1.7722223157923407,1.7707247301004827,0.7261996927602383,15.390055208932608,0.3927627714407085,11.145180179737508,121.14035246729618,-20.432453226763755,22.95269295372315,119.23015687055886,76.93803833190037
15.610176770016551,1.7838798802906168,1.804635924519971,0.7382226054440802,15.605455333832651,0.39318812163028244,11.155004056636244,121.13734557571212,-21.077471395255998,23.34420117715776,121.43931694328785,78.04310420120291
15.82409245800227,1.7953327009372104,1.8387525331345387,0.7502845936856599,15.81943019060418,0.39602239208239054,11.165363300242461,121.1339617191703,-21.723632499575615,23.739985594739114,123.64591849967837,79.15329646216559
16.030927933752537,1.8052854444887938,1.8730703493347391,0.7625920892944271,16.026889962609857,0.40223078207862767,11.176274494850077,121.13001338780461,-22.37143135932274,24.138052232489407,125.84981104545295,80.26552391539119
16.243225620593876,1.816472863208547,1.9075805836473592,0.774598001419973,16.238613918889314,0.39945043222880233,11.187753522768617,121.12548843683024,-23.020053216489032,24.53846014275903,128.05083414912224,81.37966035583052
16.453896017745137,1.827243101949101,1.9422848468529992,0.7868302426842095,16.44929937692359,0.4052357123740665,11.199815989239141,121.12058606715605,-23.669467461993918,24.943327296473797,130.24882355891168,82.49913312217105
16.661852287128568,1.837378137969312,1.9771794990519993,0.7989020092108794,16.657437990419567,0.4047126773622409,11.212478852481581,121.11510843068133,-24.319748821668327,25.350384316492583,132.4436190314591,83.62066641810408
16.866627167910337,1.8468187461215875,2.0122599946917035,0.8112667294136211,16.86245834035799,0.4115845728419174,11.225757905398495,121.10899110954574,-24.971005022758618,25.759110546486305,134.63505014032125,84.74326434116502
17.06934374338016,1.8558613937536863,2.047521133092232,0.8235090037951291,17.065314144361764,0.41162478427826465,11.23966878617648,121.10250867965429,-25.62321404647082,26.172533093069383,136.8229413330555,85.87167784599005
17.27451974945143,1.865552005789346,2.0829590011853725,0.8357427034890696,17.27016669558361,0.4134116841772718,11.254229109850712,121.09538839353723,-26.275897464249283,26.58745116933542,139.00712405517697,87.0013524463654
17.474977941717952,1.8743470656195906,2.1185731813893653,0.8484122388787062,17.470972627401352,0.4226750986014626,11.26945433509536,121.08772663241722,-26.92933580931276,27.005093980683892,141.18741687946022,88.13403485473832
17.680251692887396,1.8843204751603264,2.154358019179199,0.8608371147498802,17.675707701593637,0.42065885895581295,11.28536097111646,121.07947903180168,-27.582821148447692,27.424964822375998,143.36363941803575,89.26907113068746
17.8803479061462,1.8932707557909718,2.1903150772559457,0.8733843169226919,17.876175632700324,0.42465608415539513,11.3019648444606,121.07059236221814,-28.23670861404389,27.846546306417906,145.5356068816036,90.40565984495683
18.0786959878169,1.9019201916712876,2.226438724377658,0.8857490104341137,18.074643327388912,0.4235074480973423,11.319281751522794,121.0609833773279,-28.890967639628798,28.269078275406144,147.70313053578138,91.54250178121303
18.27570774545893,1.9103372118248896,2.2627255656407215,0.8982215044010061,18.271708051208407,0.427156112792902,11.337327020592056,121.05081722248806,-29.545522174797952,28.69458678858267,149.86601654812694,92.68254628174242
18.468707563355565,1.9179424486843324,2.299172591592651,0.9106999695670266,18.46502153808251,0.4291096519293219,11.356117366463877,121.0399496537323,-30.20056375209242,29.121356572429615,152.0240749400109,93.8234380812292
18.667224335018545,1.9268525732576032,2.335775113024283,0.9231460098928926,18.662924969103187,0.43032663152632145,11.375668546766974,121.02847352497605,-30.85530442884192,29.550565640491612,154.17710865475237,94.96689587638065
18.85840617166832,1.934403559197711,2.372535158356186,0.9358216851464178,18.854685770813376,0.43607607695090694,11.395996634382755,121.016246999491,-31.5103125507012,29.980584154743227,156.32492188736796,96.11060885493217
19.05664525507018,1.9437497899281175,2.409446168981958,0.9482292494361452,19.052183674182743,0.43325793057678486,11.41711702896282,121.00332434967724,-32.16465274756774,30.41223629615035,158.46731241978705,97.25564637391619
19.252171551343054,1.9528984730365524,2.4465112209436484,0.9607963281794492,19.247813581023365,0.4377405576734056,11.439045034931041,120.98975977469416,-32.81845228513703,30.846163763486135,160.60407827235758,98.40305628028078
19.43473202176392,1.9597239573101366,2.483727162296418,0.973286776644948,19.43158729793504,0.4381918222857762,11.461796564050019,120.9753696781904,-33.47284308960661,31.28024364818007,162.73501829244196,99.5498183612961
19.62341604521498,1.9681911584708023,2.5210835222969763,0.9856703152763694,19.619686419144273,0.4378907370663759,11.485386883257888,120.96023706232921,-34.12692711316049,31.715720391544192,164.8599240463227,100.69750926576532
19.809314584359527,1.9763258073490788,2.558582248224411,0.9984475110357524,19.80571099370718,0.4463709798116486,11.509831504779868,120.9443427072597,-34.78077883599326,32.152430239153674,166.97858892194927,101.84593479106357
19.990520518738776,1.983628239832383,2.596220287203323,1.0111314338848563,19.987304688896984,0.4464767567514641,11.53514590463601,120.92771205792334,-35.434647961054,32.59073124101057,169.09080479294062,102.99566532421551
20.171231427695602,1.990875068200672,2.633993200666737,1.0241933916844643,20.16800965415314,0.45464587168049314,11.561346082016826,120.91020496149889,-36.088331266772,33.02904458356814,171.19636400975287,104.1444482122945
20.35395648283884,1.9985204098483385,2.671898983884603,1.03684801768321,20.350438412744552,0.44923224718560617,11.588446658919565,120.89191101092347,-36.741386860609055,33.468669449699746,173.2950534503907,105.2939664308604
20.538693563081324,2.0066022025423536,2.7099379241699353,1.049422824681357,20.534850229043514,0.44930188781116914,11.616462903097272,120.87281861201646,-37.39340886147693,33.90948955333192,175.38666285946965,106.44415593158395
20.7270130882971,2.0155068180147717,2.748110170068685,1.0621431605854248,20.722684412728995,0.4534232419261268,11.645409638993442,120.85298726291366,-38.04386676196009,34.35220600028014,177.4709814451635,107.59615439589416
20.904867727309465,2.0223898074062725,2.786416907736566,1.0747555503213768,20.90144238108769,0.45313300267124906,11.675301771843806,120.83232830656318,-38.693679550196975,34.795696323608674,179.5478005092591,108.74856687654949
21.07844523852691,2.0285882672802056,2.8248505752999336,1.0877698121500605,21.075443190988153,0.46174219223500834,11.706154115265235,120.81086667190657,-39.343047379981726,35.24035388558742,181.61690881289542,109.90194958107395
21.255291774403304,2.035697441049996,2.8634066193480976,1.1006504082583928,21.251910388469696,0.4609535834943499,11.737981990794651,120.78844805669867,-39.99138750182465,35.68445130448763,183.67809669300914,111.05382716124319
21.429349928162992,2.042416565038942,2.902085892681498,1.1135688379617008,21.42611459409818,0.4631035744441447,11.77079871238675,120.76511227747886,-40.63877298962325,36.12879164117252,185.73114967159927,112.20502606107539
21.6063551469706,2.0498302351419473,2.9408857696689665,1.1266909614533978,21.602744818199426,0.46821521502255914,11.804618289810605,120.7409536325037,-41.28468766435981,36.57462050302239,187.77585595473647,113.35727499421509
21.777007270604372,2.055957515088928,2.97980689042015,1.1395552227279897,21.773899828549474,0.46517511465695954,11.839455275330693,120.71588698350325,-41.92958868900314,37.02087910894262,189.8120078984648,114.5092573312923
21.946047828998417,2.0616760269545034,3.018844671023544,1.1525827491792215,21.94305681390688,0.4694738880656323,11.875323726679198,120.68987185278212,-42.57340521225706,37.46722823116502,191.8393964767456,115.6604303175472
22.112408697605133,2.0667261687471994,3.05799674638547,1.1654723989040132,22.109602260868996,0.4684325306320394,11.912237291806377,120.66299060489725,-43.216172131709754,37.91478472047799,193.8578127529472,116.81230858278177
22.279600703623146,2.071922389064715,3.0972605683491565,1.1782744740650628,22.276634528767318,0.468163118467418,11.950210613198578,120.63514616954632,-43.85756155010313,38.36238926777167,195.8670523762703,117.96339268272405
