coupler,coupler,$D^a [mM]$,$D^a [mM]$,$I_{islet}^a\ [pg/islet]$,$I_{islet}^a\ [pg/islet]$,$\gamma^b$,$\gamma^b$,$I_{cell}^b [pg/islet]$,$I_{cell}^b [pg/islet]$,$G^b [mM]$,$G^b [mM]$
2.696762793639209,1.0730048205154203,0.5037754067016067,0.07006113633517874,2.5989489148487337,0.13982190403878278,11.004381649428979,120.98928239794594,2.560626089310972,8.833497254926934,5.436810191196855,35.3561537429973
2.9783703784341924,0.9652048359494774,0.511399398339563,0.1001225909432301,2.944003877986688,0.16483895369588242,11.003954697633162,120.99382426009133,2.914682694739895,3.6715672316322623,7.672420459915884,35.55940892454698
3.2582498947158456,0.925651765543086,0.5208629265689524,0.12312433995419875,3.2368756090290844,0.17505706281212427,11.002781201386824,120.99835417161026,3.1851030867546797,1.8195284765554438,9.908214684925042,35.80457535349382
3.536624928470701,0.914542032935534,0.5317287912912434,0.14262899248223065,3.5180966057814658,0.18285596010038685,11.001506114378572,121.00291511337761,3.4211642362060957,1.326010716746589,12.144421061733738,36.09090455464165
3.8134227318223566,0.9190632056144185,0.5438268411235185,0.1600991693881017,3.7957176899071783,0.19060400367778238,11.000231113051996,121.00738042616427,3.642528294294607,1.2419945544503916,14.381078311940655,36.4169965630654
4.090087610296905,0.9329006689566036,0.557048072500038,0.1763269772946797,4.072505460702814,0.19889945977434825,10.998972182162106,121.01190453118014,3.8579258661484346,1.2410693886178747,16.618187164887786,36.782328630995075
4.365623693098314,0.9523242320378469,0.5713099153072108,0.19138865747938136,4.348217192222364,0.20512905065759446,10.99773248762358,121.01644300328257,4.070251638768241,1.2512050275158555,18.85574711463414,37.185605829205905
4.6396248346427456,0.9749470219837941,0.5865405028016539,0.20583714777215573,4.622479888726957,0.21300662658780153,10.996513167396188,121.02097452654762,4.2804198017693125,1.2622603366017848,21.09375437744893,37.6255121540238
4.910768695524894,0.9990674564296593,0.6026752746693091,0.21994570971639632,4.894161522970535,0.22173428767010545,10.995315102278255,121.02558800025896,4.488002690428402,1.2770920193054145,23.33220382221043,38.10131415511312
5.180565510760061,1.0239848039092672,0.619654124326189,0.23335301456644725,5.1642442647134885,0.2265646046540072,10.994139188434929,121.03011531711473,4.693735470238607,1.2868339015703945,25.571093409322202,38.61067387104128
5.450484990957193,1.0494847382358374,0.6374273160618031,0.24634077510411093,5.434100649203174,0.23235506905635653,10.992986098397523,121.03467584650275,4.8987940671504475,1.3008734011410865,27.810414555482566,39.1530323327522
5.718994796741754,1.0749883385175463,0.6559535480482737,0.2589328337025637,5.702779613784514,0.2375178332817464,10.991856893524528,121.03926804807018,5.102729597187135,1.3162730015760458,30.050162482541054,39.727068300963616
5.9859256179770455,1.1002263054613335,0.6751932806510013,0.2710827413157358,5.9699557409621775,0.2413691093560751,10.990752489073202,121.04378381628969,5.305261002969928,1.3280283314380916,32.2903321813792,40.33058108776811
6.251774207456037,1.1251552549532644,0.695110021129949,0.28330541620061583,6.23596158134751,0.24952469998093463,10.989673588541336,121.04835036112551,5.506573998020031,1.345147161456972,34.53091455064714,40.963278901382324
6.51723722810857,1.1498484244351632,0.715670894322102,0.29535906335547807,6.501421234570444,0.2551182753446475,10.988621186232194,121.05296935692014,5.707161027006805,1.3638872395430153,36.77190484106541,41.623905188681796
6.781154379015788,1.173973071852034,0.7368479640426813,0.3071719175210694,6.765531453536823,0.2593931999838124,10.987596208229661,121.05761160904582,5.906522966222838,1.3822501044753892,39.013297942467034,42.31093159558307
7.044685694621876,1.1977520637776833,0.7586137021571631,0.31896643253383844,7.029059779830277,0.26556076235225345,10.986599435680546,121.06218238705016,6.105156275385525,1.3967370145480602,41.2550875749439,43.02217093026187
7.305347939953208,1.2205834039951482,0.7809441590943607,0.33087798113005135,7.290173318469897,0.2730732696346251,10.985631591407582,121.06676962402906,6.301769704325125,1.4151821009423953,43.4972636657767,43.75727137409485
7.565966548398137,1.243166220687647,0.8038135319075081,0.34247269788741974,7.550765999825671,0.2754850744699419,10.984693454112858,121.0713670775211,6.497542192577384,1.4344484103467912,45.739819468930364,44.51499787285109
7.825490231625736,1.2652818537624766,0.8272021938173566,0.3540087985803098,7.810375690693036,0.2802499154682506,10.983785848366097,121.07590351253073,6.692314659478143,1.4508408382463303,47.98274746211246,45.29342844542206
8.08407033723779,1.2870018275935569,0.8510904731519986,0.36537422517082546,8.069031186401844,0.28349670115153275,10.98290943808388,121.08043460771513,6.886114405817352,1.4699296579303012,50.226037359796464,46.092081834941546
8.341547180898488,1.308319421450111,0.8754603655834217,0.3765619103699051,8.326610606629401,0.2862571218894856,10.982065068325028,121.08495354036381,7.078856724780053,1.4895314619755258,52.46968069858849,46.90983299559373
8.59831246198155,1.329359886602703,0.9002947733679321,0.387894438839784,8.58340305252932,0.29276038931520154,10.9812534841476,121.08952848784992,7.270742901717313,1.5131398456759533,54.71366852149367,47.74650758391642
8.85223279776983,1.3496112475087383,0.9255779502855148,0.399241035350757,8.837759769987315,0.29768235643696,10.980475579272024,121.09420048776117,7.460573572316207,1.5400050675763859,56.9579941323027,48.60168813201027
9.10254921275191,1.3688979598849857,0.951292675890727,0.41049840271221,9.08874391601421,0.3010315039766543,10.979731990490109,121.09884024298567,7.6474137239856645,1.5610550894419446,59.202652358449996,49.472863753192456
9.352973761968315,1.3881868715582737,0.9774212948686909,0.4218151386224787,9.339137855684385,0.3060292930643293,10.97902283782605,121.10340976462061,7.8331166710704565,1.5794374640501558,61.44763343408704,50.358672319745835
9.601719303289428,1.4070611596144358,1.0039515009557363,0.4332513502242225,9.58806848200038,0.3118019391798095,10.97834865306504,121.1080094277799,8.017351632937789,1.6030773329822425,63.69292563945055,51.25960600308923
9.849473494337872,1.4257068704800762,1.0308703669870738,0.4445510951900307,9.83591137942858,0.314100741832365,10.977710184990428,121.11269733676303,8.200399086344987,1.6310556984753901,65.93852084781975,52.175684004921216
10.09459899761714,1.4437130116171295,1.058166459115455,0.45596916447562064,10.081431853119284,0.31952366887068084,10.977108189836144,121.11733374423721,8.381388968555257,1.6524814974673432,68.18441275320947,53.1042820691549
10.338946440955624,1.461551450461581,1.0858268279989716,0.46741862297665626,10.325863561592996,0.32381011977705026,10.97654281614814,121.12204289127088,8.561083735199645,1.679961024040369,70.430590021424,54.046427669261476
10.580595165723935,1.478743867325364,1.1138411969586741,0.4788360457156877,10.567916788859293,0.3270784089030917,10.976014835061505,121.12666035393507,8.738636174472049,1.6996239408034917,72.67704550363123,54.999157517122576
10.823199713602662,1.4961987016118303,1.1421979950682726,0.49020056682450674,10.810257273027673,0.3298667900276428,10.975524271838367,121.13129441814175,8.915900245541707,1.7242839703513255,74.92376616131514,55.96339149259442
11.061665181070566,1.5126087507838248,1.1708898736687843,0.5016390190585531,11.04934231378138,0.3343291963966833,10.975072028464638,121.13596313139361,9.090560822980478,1.751046944813527,77.17074234969914,56.93881129217443
11.299038182245567,1.5286726979982375,1.1999049742880743,0.5132198502685684,11.286900734063238,0.33974942480443265,10.974658396211453,121.14063544905065,9.263519990607165,1.7766288925125633,79.4179654661566,57.92441495044397
11.5374642603565,1.5448742504948336,1.2292343369917944,0.5247031922079745,11.524994807317853,0.34173505492022405,10.974283690447919,121.14539596787036,9.436426064232364,1.8070554013849085,81.66542540490627,58.9209424929488
11.77317876345478,1.5602368837247287,1.2588722322543617,0.5362575505883728,11.761025299085304,0.34591724916730426,10.973948833649047,121.15013645899687,9.607679742155597,1.8324095476749247,83.91311462782323,59.926282903543665
12.008710175286978,1.5753550104380987,1.2888096702517942,0.5478428284891569,11.996495210332796,0.34954069027756046,10.973653965746053,121.15483055228127,9.778158538392745,1.8556648985799018,86.16102185007185,60.93957154272881
12.246804834110662,1.5909750887268364,1.319040024332935,0.5593801293403386,12.233902266714722,0.3519218567484417,10.973399525042623,121.15957439164848,9.949861451634206,1.884298807709619,88.40913451183587,61.96184546429066
12.48005118733272,1.6054012895356322,1.3495599819871131,0.5710513742992462,12.467816796852276,0.35690206690255655,10.973186751594767,121.16431886823847,10.119141368661076,1.9112407619566183,90.65744286682457,62.99193297101296
12.710622461512685,1.619259742604637,1.380359743401641,0.5830391860887337,12.698891512583941,0.3646469371831308,10.9730157017475,121.16897362932275,10.28584355500061,1.9328649758055556,92.90593610703945,64.02803312549558
12.944774307310581,1.6341596644269374,1.4114307089766953,0.5946974105723064,12.93226156430319,0.36289554866299556,10.972886204137467,121.17380131398028,10.453659687773325,1.9689537064286753,95.15460007917136,65.0739189110168
13.172971321735531,1.6478878218726432,1.4427709213632625,0.6064616870171552,13.161325600929558,0.3671544171017926,10.972799885668792,121.1785741018016,10.618345448281616,1.9944195731303267,97.4034292511642,66.12562304793323
13.397836786229163,1.660998394629116,1.474370531970635,0.618431432915413,13.38686207542196,0.37309801314094193,10.972756143892184,121.18336886304995,10.77977716899477,2.0227843950282356,99.65241052303463,67.18405038492557
13.621111724991351,1.6738095242791684,1.5062211169861257,0.6302598504371457,13.610419581644237,0.3738179456590739,10.972754948423244,121.18814563994916,10.938950229552574,2.049407859618823,101.90153375454247,68.24824796138313
13.849976819008589,1.6879210419218391,1.5383164906816091,0.6421376773472836,13.83805237011984,0.37712208934187036,10.972796266898513,121.19294222451104,11.100571374990977,2.0780829832410253,104.15078709088266,69.31853833249706
14.078546037431806,1.7018490925060212,1.570656939264154,0.6540152638409794,14.066262531559914,0.37979501499645835,10.972881467314437,121.19778003118434,11.262991879484616,2.108561084945677,106.40015879832208,70.39499300945019
14.303984489757568,1.7148647064564704,1.603239085932728,0.6658758011574236,14.292082589585334,0.3821458674253717,10.973011499270797,121.20266655059008,11.423851535073482,2.1399539260741736,108.64963799528778,71.47747126811507
14.520847270265222,1.7257810358967813,1.6360565755749121,0.6777578909037013,14.510563135147095,0.3850101529658594,10.9731866348302,121.20750615121537,11.578939494327642,2.166067204265383,110.89921439066529,72.56414215265137
14.742340911179781,1.7377825557943318,1.6690982287400402,0.689869944452833,14.731279551517218,0.39104648775805106,10.973405647091568,121.21234998100361,11.734495523385704,2.1943547246667543,113.14887534826994,73.6556277286639
14.962425416335464,1.7495980456417293,1.7023628526367247,0.7019976287424183,14.951315043028444,0.3939180922301993,10.973669372615404,121.2172117886468,11.889391741366126,2.223944224988036,115.39860871434212,74.75193549049423
15.18084729788825,1.7612851069925843,1.7358465404249728,0.7140389176789957,15.169883423950523,0.3950108646435917,10.973978285677731,121.22210831828708,12.043025132734329,2.2548465741331314,117.64840289950371,75.85313566017558
15.394530809018761,1.7722223157923407,1.769544706272427,0.7260576414049552,15.384366867598146,0.39695805142006446,10.9743326890748,121.2270878283395,12.193309239461087,2.2888810819556205,119.8982469458133,76.95984199135452
15.610176770016551,1.7838798802906168,1.803450333478395,0.7380350376801216,15.599602504167706,0.39854427783932644,10.974732367089018,121.2320491690241,12.34343015041668,2.3176111652328806,122.1481321733445,78.07014480302486
15.82409245800227,1.7953327009372104,1.8375612691161223,0.7501456341052305,15.813603633549064,0.4028973269533175,10.975177541491576,121.23709567933079,12.492446836549789,2.3516386177918234,124.39804537780583,79.18562793175892
16.030927933752537,1.8052854444887938,1.8718734781141393,0.762291885657339,16.02169299684465,0.4057885949791267,10.975668738596141,121.24196554066509,12.636773139005527,2.3714180705491517,126.64797731488943,80.30163408524193
16.243225620593876,1.816472863208547,1.9063788365456276,0.7746859085093853,16.232969121076167,0.4119640471464984,10.976204293197952,121.24703175245054,12.782500222092494,2.4106167684344517,128.89791008643806,81.4244309577993
16.453896017745137,1.827243101949101,1.9410776770091616,0.7871392064972114,16.443580179475248,0.415317249233495,10.976786249317229,121.25202800403346,12.927811154164374,2.437586272228897,131.14783811941743,82.54925115013076
16.661852287128568,1.837378137969312,1.9759669639752246,0.799317948178455,16.651886316481978,0.41310933085438983,10.977414311026223,121.25703258544964,13.071327166398987,2.4672701602848233,133.39774602279067,83.6773122828796
16.866627167910337,1.8468187461215875,2.0110423500300385,0.8115602397187015,16.857185691129416,0.41605719737417984,10.978088600561023,121.26201889175636,13.212216652464122,2.4959169883574006,135.64762187562883,84.80801394658857
17.06934374338016,1.8558613937536863,2.0462987707578577,0.8237720321905123,17.060236513148993,0.41762278800150776,10.978808735962957,121.2670722109839,13.350821042666212,2.5293815213213127,137.89745284803212,85.94271517688574
17.27451974945143,1.865552005789346,2.0817321152426302,0.8362059954024714,17.264804609119892,0.4232538802715278,10.979574776021764,121.27226394709467,13.489987761480734,2.567765577071553,140.14722928591073,87.08253368811572
17.474977941717952,1.8743470656195906,2.1173415029770695,0.8485797584857125,17.465901449788362,0.42444199246245506,10.980387686286122,121.27729338012021,13.626549609005451,2.5897719504286365,142.39694334752858,88.2220574930063
17.680251692887396,1.8843204751603264,2.153122014773544,0.8610586379233778,17.670155975501984,0.4281169831772307,10.981246101320721,121.28242393731016,13.764959863619879,2.6243711111996677,144.6465768031776,89.36583067577727
17.8803479061462,1.8932707557909718,2.189074280729983,0.8732348779568957,17.870899552945048,0.4251209017485727,10.982151875505224,121.28760779074761,13.901004293235019,2.658323403803184,146.89612022042274,90.51288718809622
18.0786959878169,1.9019201916712876,2.2251935565145686,0.885656458980442,18.069541887845844,0.43091206631951173,10.983104664832354,121.29268088969172,14.035055027110502,2.6828544128937457,149.1455630250275,91.66021566677803
18.27570774545893,1.9103372118248896,2.2614760835422203,0.8983460635226785,18.26669454528019,0.4374424594717442,10.984103664988652,121.29781474896706,14.16750817024149,2.7157474261117476,151.39488872140646,92.81077706448608
18.468707563355565,1.9179424486843324,2.297918856900651,0.9107441157621784,18.460339351091534,0.4346486870162967,10.985149323474616,121.3030167518295,14.296917092520744,2.7504230901559925,153.64408713579178,93.96460231264858
18.667224335018545,1.9268525732576032,2.3345175267313607,0.9229678318577262,18.657695694826543,0.4332720057742963,10.986241162521765,121.30825240766089,14.428420651471242,2.7834526224019887,155.89314868487418,95.120980454619
18.85840617166832,1.934403559197711,2.37127337657148,0.9356174239293047,18.849925986025482,0.4421607730775928,10.987380223581567,121.31348648080204,14.556363431736827,2.814345821865144,158.14206119440496,96.27919007491346
19.05664525507018,1.9437497899281175,2.4081805449095555,0.9482306877544882,19.046776603441685,0.4436310543202427,10.98856556264218,121.31872797512207,14.687118788948283,2.8454388357055094,160.39081248641014,97.4393142392008
19.252171551343054,1.9528984730365524,2.4452412181999534,0.9606654939277675,19.242380728945136,0.4423958177267292,10.989798593567684,121.32399399324673,14.817374252015725,2.8776429346389722,162.63938927091658,98.60157866646544
19.43473202176392,1.9597239573101366,2.4824529064353555,0.9735054769548787,19.427362494636327,0.45096053937227293,10.991079643834382,121.3292775940232,14.939653241541237,2.9096933619555876,164.8877793829888,99.7657808872356
19.62341604521498,1.9681911584708023,2.519805830961559,0.9862151373713229,19.615118429530412,0.4507356330952833,10.992406291072257,121.33460087148316,15.06241896818392,2.942912912318958,167.13597233779728,100.93225283279924
19.809314584359527,1.9763258073490788,2.557300897198729,0.9987754119081795,19.80120050860569,0.44979357398284786,10.993779172073118,121.33986719575967,15.183711477788165,2.9709872065048692,169.38395688682795,102.09917448297513
19.990520518738776,1.983628239832383,2.5949355126940645,1.0115442916318307,19.983193420339376,0.454929560992188,10.995197777170688,121.34520451508573,15.301602709572762,3.0054413647330738,171.6317186318338,103.26880601023578
20.171231427695602,1.990875068200672,2.63270524534164,1.0243204334603238,20.163972300942987,0.4568277976838735,10.99666168820113,121.35056745222307,15.417840252630413,3.038382743477516,173.8792484179139,104.44025530183286
20.35395648283884,1.9985204098483385,2.670608033251483,1.0369622382292065,20.346119474153966,0.45611530441165415,10.998170547187328,121.355962716723,15.534628792433068,3.0715006912832292,176.1265351306647,105.61358255976815
20.538693563081324,2.0066022025423536,2.7086437262478285,1.0495695256584128,20.53014968475327,0.45699502822005494,10.999724922236055,121.36126364289512,15.652849136851728,3.0977145316020254,178.37356742285192,106.78642023793633
20.7270130882971,2.0155068180147717,2.746812468045391,1.0622814263370415,20.717422240879387,0.460374875149022,11.00132518587634,121.36670410477528,15.773796044988558,3.1358224359156326,180.62032891064882,107.96298817768431
20.904867727309465,2.0223898074062725,2.785115343576763,1.0751837442454117,20.896971197333187,0.4654019696235706,11.00297360389959,121.37219969728912,15.889559318311512,3.171230865151566,182.8668112885207,109.14166999612941
21.07844523852691,2.0285882672802056,2.8235456587863155,1.0879804015329644,21.07155360421166,0.4652706845758938,11.004668386420235,121.3777198111085,16.000687676947564,3.204532369071063,185.11300470493734,110.32185306273391
21.255291774403304,2.035697441049996,2.86209892045008,1.1011053232183245,21.24775772029534,0.4724366065924702,11.006407956592739,121.38324217769271,16.111928465077654,3.236290946743761,187.35889857076108,111.50308275549182
21.429349928162992,2.042416565038942,2.900775130314287,1.1139816006415881,21.42205545352772,0.4698849411534291,11.008192562148906,121.38871778415827,16.221546372631565,3.265200546055232,189.6044806893915,112.68441354142516
21.6063551469706,2.0498302351419473,2.939572106290143,1.1268060768962251,21.59832936618477,0.4702919336985495,11.010021666879766,121.39416134848074,16.332288755802438,3.294494792354044,191.84973747469485,113.86607931066837
21.777007270604372,2.055957515088928,2.978490175504703,1.1396231794434273,21.76991590624675,0.47160042115571077,11.01189604983665,121.39970785572349,16.43967470037751,3.3312129259513545,194.09465515986085,115.05052199415141
21.946047828998417,2.0616760269545034,3.017525158065837,1.1528344958714616,21.93927560793236,0.4799854669254078,11.013815295184031,121.40519099071393,16.544756994349882,3.3601248729034077,196.3392260018736,116.23462747433129
22.112408697605133,2.0667261687471994,3.0566745323012583,1.1657535298319257,22.106046240311116,0.47657704877130186,11.01577817008365,121.41077026108482,16.64731600880623,3.3964132814766566,198.5834361128509,117.42130755983875
22.279600703623146,2.071922389064715,3.095935860357713,1.1790042291010183,22.27296380745247,0.48364344740830945,11.017784559517168,121.41634904368411,16.74937064666301,3.4286930706613226,200.82727774232626,118.60873022944546
