coupler,coupler,$D^a [mM]$,$D^a [mM]$,$I_{islet}^a\ [pg/islet]$,$I_{islet}^a\ [pg/islet]$,$\gamma^b$,$\gamma^b$,$I_{cell}^b [pg/islet]$,$I_{cell}^b [pg/islet]$,$G^b [mM]$,$G^b [mM]$
2.696274375232406,1.0658823151688546,0.5037753745381536,0.07102804565431617,2.598557703636704,0.14175982194063175,10.998623577816554,0.3502632400761649,2.4243366163131044,0.14270964201719807,3.247216220723139,0.1822053029011346
2.9779841938966456,0.9540004487521376,0.5113890316216396,0.10034269708377604,2.943606096150813,0.16352202426867196,10.997357872871639,0.480209209054127,2.8164358074426175,0.19260180119898124,3.2940634879900297,0.2552206263807313
3.258142410581968,0.9112508302478435,0.5208324735633736,0.12310185386249974,3.236699434329325,0.1745092238880769,10.996217606795076,0.5795451546929409,3.1835940242570304,0.2277051979254397,3.340623137517437,0.3112352016580357
3.536933841285645,0.8977382781079647,0.5316668048835632,0.14242050716676943,3.5182982391929474,0.1826643901744952,10.995208116067287,0.6609243480252301,3.53095046382709,0.25537130471750147,3.386909425305185,0.35765073336479963
3.814246969871874,0.9005386181913243,0.5437209140471244,0.15953470820375668,3.7964075063474523,0.18983830018652137,10.994321867979705,0.7277259620799179,3.862449184289405,0.2770764702171819,3.432938815395686,0.39636562969040723
4.091487326463721,0.9131770272695928,0.5568844110571366,0.17528462704091283,4.073753576613669,0.19771643559243063,10.993566817002485,0.7838346797112012,4.181276758265019,0.2959216829241835,3.4786897618679284,0.4295498223915256
4.367620276987509,0.93176434119886,0.5710742864389966,0.19010910613646292,4.350054843582739,0.20596234082584505,10.99292562173259,0.8318120661296312,4.4898961601393665,0.3132700468719195,3.5241867626625027,0.45858793080218563
4.642200900061198,0.9537848875472777,0.5862166104485516,0.20382583009337849,4.624899385456465,0.21117075742733177,10.992379114241182,0.8727213675687769,4.790133490490376,0.328949808330414,3.569457151042932,0.48400712129645357
4.913868089425705,0.9774388615909925,0.6022480591126231,0.21696544801146728,4.897116905606917,0.21841104841968859,10.991922013514042,0.906725162820939,5.083085043292089,0.3425062598708963,3.6145006819534133,0.5058386263179011
5.184093304908856,1.0019877164991358,0.6191064266804622,0.2295389819698594,5.167650096340237,0.22479170907744422,10.991548342542599,0.9354031642990515,5.369938614868185,0.35530133852500306,3.6593252703509074,0.5249363680886693
5.45430749150546,1.0272113616180065,0.6367392889066408,0.24159349996592702,5.437832895817155,0.23064715385150822,10.991250654962668,0.9589381043714396,5.6519091988548675,0.3667142393316846,3.7039416082759367,0.5413393794916388
5.722964044075525,1.0525020997041232,0.6551116079813737,0.2534382818089228,5.70669568559316,0.23808125101062966,10.991018158446126,0.9785433927146246,5.929700072272877,0.37747741818900177,3.7483711756861338,0.5556897144475028
5.98997742058782,1.0775609698336897,0.6741756764233663,0.26491203414404085,5.973975277265335,0.24402028906667378,10.990844920718377,0.9950849211236329,6.203820910221006,0.3880627351200479,3.7926236944210876,0.5684460662601392
6.255952645659818,1.1023185111771538,0.6938989308436708,0.2762617800638479,6.240104218332306,0.2514531457586813,10.990735883945112,1.0084713921566824,6.474741054811777,0.3982805904139989,3.8366808454999255,0.5795291115446769
6.521694663845665,1.1268248538255359,0.7142476497715741,0.2870062305502828,6.505812642927267,0.2538542710751367,10.990674211974476,1.0206224480565653,6.743111681983658,0.40943842133152986,3.880585030577307,0.590013598663363
6.786151439882815,1.150699446701523,0.7351961113177374,0.2974138115463048,6.770405814116459,0.25793361818752747,10.9906471869936,1.0301911582193188,7.009211546632896,0.41805067662823564,3.92436711753341,0.5990262197957603
7.050534691476969,1.1741602437335683,0.756715265791666,0.30785946592675784,7.0347135748946465,0.2657387222275275,10.990679798468545,1.0370135137004024,7.273392088501529,0.42607921936180193,3.967965843291523,0.6065074535679233
7.312186485110942,1.1966082394273982,0.7787855964003855,0.3180056537958613,7.29677594058221,0.2696244314251325,10.99074286533073,1.043244216819992,7.535629205968307,0.43426877741679487,4.011464332584067,0.6136625222036988
7.5737009584763655,1.2188329192578995,0.8013761387568259,0.32785553872488177,7.558276433348138,0.273397090137386,10.990842286037942,1.0488746357825205,7.796245210687675,0.4427724092407076,4.054850466341145,0.6204920999630634
7.833795527733855,1.2406595724802585,0.8244681203513088,0.3379189907138107,7.8185259064865695,0.2825032995905715,10.990992533355632,1.053447375657703,8.055199044431612,0.4518486166870529,4.098078821366399,0.6267435840497753
8.092390250896642,1.2622208078347388,0.8480508161776817,0.3477177024100901,8.077322547234266,0.2856146776024423,10.991172744630576,1.0575015853355547,8.312609702799254,0.46002671962649977,4.141214755855537,0.6326717143188897
8.349148452136433,1.2835548303330127,0.8720978175251637,0.3575156407825978,8.334357032891221,0.2918588056834965,10.991395888182465,1.060211374224519,8.568375199650509,0.46719345104458204,4.184222136179635,0.6377907770877904
8.604502098647572,1.3047868697015184,0.8965900584685352,0.367106551308493,8.589912770990807,0.29573410355711216,10.991658214842523,1.0629091968515076,8.822578304528328,0.4752347379881012,4.227119666074942,0.6429100119727812
8.856412375386753,1.3253570555118321,0.9215126933629277,0.3764112781140737,8.842415999885919,0.2981763841615231,10.991951868846392,1.0653680642483934,9.07487676402008,0.48249308219867654,4.269934569675093,0.6478563406289284
9.104214875937032,1.3450575287147772,0.9468513278571575,0.38552590148400173,9.091020446616762,0.3010840806329269,10.992301320222879,1.0664427170963529,9.324726853364703,0.48971130959790476,4.312580772347701,0.6519765407056087
9.351716225181917,1.364882350393676,0.9725802341382251,0.3946290206050372,9.338601761026718,0.30662832438750676,10.992680651794956,1.069052324228953,9.572684958163698,0.4988548836695095,4.355159925910079,0.6570289365814046
9.597268283583617,1.384358003353767,0.9986954468714516,0.4037460238032048,9.584417062741126,0.3117316509656578,10.9931037693131,1.0694450318457103,9.818647037217982,0.504152048431255,4.397619536602797,0.6606635163022275
9.84187539659797,1.4036021459670631,1.0251788050893471,0.41285095562879454,9.829121180321962,0.3168937656429243,10.9935736026772,1.068885236181773,10.06286814361632,0.5089355194092263,4.439964075342456,0.6636821982480332
10.084261352805697,1.4220926741832243,1.0520270361220465,0.42169760608446066,10.071824471822655,0.3181259690439112,10.99406560122509,1.0702532339778434,10.305400995201067,0.5152063959275318,4.482303513765258,0.6678535029830625
10.326637888752884,1.4402379975753423,1.0792207843422703,0.43059297360586374,10.314118269916518,0.3235874100836439,10.994626496654245,1.070705757643671,10.546309356730479,0.5233829680655252,4.524446457641426,0.6715057546923657
10.567445472041072,1.4574466594883289,1.1067376671365396,0.43926235472749975,10.555072919522026,0.3269570114244132,10.99522870305369,1.0706667585703562,10.785720908016103,0.5297628355255101,4.566503099583227,0.6748010042657812
10.810559160416233,1.4746223130160665,1.1345948114413855,0.44791630004804633,10.797603433393755,0.330154656980287,10.995860219557274,1.0717421630480424,11.024497787981147,0.535853945602106,4.6085481926834175,0.6787416203130402
11.050542184982987,1.4904710473139842,1.1627783314295095,0.45667039868792747,11.037942984869698,0.33563191893902117,10.996550484439577,1.0715614847170691,11.261996277600614,0.5413667326231466,4.650453363536,0.6818823801346415
11.289958704634046,1.5058440928512937,1.191267035359573,0.4654237687979843,11.277389271000528,0.3409661813443324,10.997283403997272,1.0721598658802527,11.498461875103686,0.5476926208154967,4.6922999872162485,0.68549330935425
11.530471797541395,1.5213644098585257,1.2200719237379622,0.47404166971764367,11.517532924013086,0.3425690370361662,10.998072434338422,1.0720218110450614,11.734232059744944,0.553540401776078,4.734030087620212,0.688620143580513
11.7678343461248,1.5361187228990776,1.2491669969944212,0.4825973692669835,11.755294193322452,0.3469775670746332,10.998905708075405,1.0730621150407806,11.968908584260522,0.5607281042752341,4.775705527853523,0.6924846584700404
12.00414461337823,1.5508321591779108,1.2785634324951394,0.4912701514848392,11.991735857652168,0.3516317878128501,10.99979130800427,1.0734183970110431,12.202443622340883,0.566354251605746,4.8172893157248575,0.6958768989030393
12.241927651541118,1.5663407552925062,1.3082321581265368,0.49973147265414597,12.229090101039322,0.35423640658801087,11.000733172413488,1.0725454616910497,12.435356134431604,0.5700792095077091,4.858773359016554,0.6984349859309052
12.473602838843362,1.5809022215996302,1.33817842849864,0.5078590455275409,12.461739782610477,0.3539614691531721,11.001729725441775,1.0721068878317768,12.666605256493984,0.5753339032589537,4.900168635561143,0.7012641487277843
12.701174371399247,1.595213068162856,1.368394854647958,0.5162701948582215,12.690164485174563,0.3611920531463743,11.002778145027836,1.0712759148902988,12.89571459944978,0.57928343184756,4.941489124801004,0.7037931359997959
12.93072882280103,1.6110023103586955,1.3988719851998963,0.5244560901237793,12.919328791459936,0.36190047879758774,11.003880417836855,1.0720291413996095,13.123510463115515,0.5865259725997888,4.982740058607759,0.7073683242270565
13.152765192013248,1.6259338400679781,1.4296051309718405,0.5324867393808906,13.14262597102568,0.3632543409865735,11.005037617777607,1.0722411104870375,13.348727707051317,0.5919432233054759,5.023903175162968,0.7105530296023458
13.370754934128854,1.640387352930233,1.4605752254882918,0.540852816032475,13.361511122759799,0.37197597502437996,11.006258723112904,1.071205111371736,13.571039651106771,0.5962959241933457,5.064927103366513,0.7128956154515885
13.587490695350425,1.6544492181747208,1.4917677239312155,0.5490895049360857,13.578509254256417,0.37544289057287555,11.007524471019778,1.0727789368069314,13.790928166535114,0.6036932617688382,5.105943695652538,0.7169538142801135
13.811204785313748,1.669556302566349,1.5231985590764388,0.5573678473004481,13.80071185459354,0.37847156838349316,11.008854004025137,1.0724547317062845,14.010085135145015,0.6076757344066678,5.146841228798669,0.7197132549024797
14.03706277177298,1.6839069167898075,1.554851318032767,0.5655849028843042,14.025669468542615,0.3822432541438781,11.010242067589893,1.0725717464321463,14.22916412334279,0.6125986901360635,5.187672234882489,0.7227517734060279
14.262939338355864,1.6965767055769652,1.586743771764125,0.5737410483225401,14.251192259222483,0.383895131334472,11.011696111241491,1.0724731379524306,14.448122960841964,0.6183803908453536,5.228388260213345,0.7256455740012254
14.482730813742819,1.7064792377593372,1.6188572124005884,0.5818015234121693,14.471959219654085,0.3867549587937758,11.013203002371656,1.0729718796073993,14.665889221269687,0.6230977125052316,5.269079746950451,0.7288948206887301
14.708642917570614,1.7171973318236384,1.6511914004997903,0.5895652937528334,14.696670265805897,0.3858667458631833,11.014775385395659,1.0732516863501687,14.883831471870002,0.6281059041433265,5.309677340719913,0.7319876620699762
14.9336348157467,1.7276277393108825,1.6837429510233646,0.597362424610116,14.921433351898015,0.38969089668919943,11.016412899640624,1.0727507008356274,15.101740568447836,0.6316691994783256,5.350187089657561,0.7345194407840919
15.156452214348974,1.7380603302961954,1.7164985718357908,0.6051880106703528,15.144466192873866,0.39482688857005316,11.01811169814261,1.073197012038318,15.319257432624347,0.6366079452595547,5.390649962723629,0.7376805414994456
15.373240054537746,1.748017458805096,1.7494773368616587,0.612940344613708,15.362328826420786,0.39570688263389536,11.019877161057916,1.073925888732337,15.535218127913547,0.6425550125181815,5.431019683406735,0.7410332781779548
15.59080589892801,1.7590153784327536,1.782660155162776,0.6208100160685289,15.579778865889919,0.40026793559265156,11.021712409458056,1.0730839084329313,15.750045312920726,0.6457820149499999,5.471271281278709,0.7432736334317295
15.805785301548894,1.770003490132014,1.81603820433047,0.6284385282487198,15.795076379475509,0.40078858454162886,11.023605093270042,1.0739229794893552,15.963614329538922,0.6500655587966095,5.5115285517027965,0.7466379611764118
16.01315656857514,1.7795432468941397,1.8496011668523573,0.6360322927763401,16.00385645772108,0.4045281861618713,11.025569357696071,1.0744685447249396,16.1745368439233,0.6552828131570849,5.551662318064929,0.7498059596547536
16.225790409118417,1.790432588840309,1.883354135911708,0.6438521888784352,16.21554200904579,0.41016884929509856,11.02760322100221,1.0736943732678752,16.38437964314984,0.6578410514468652,5.59169633665,0.752020652874359
16.4368969334555,1.8008670819237207,1.9172959612893905,0.651506519745984,16.426586251989452,0.41082650972733675,11.02970410326275,1.073714439986678,16.593119291061708,0.66205352302095,5.631669754556734,0.7547767114570598
16.64557441006218,1.8105772504144353,1.951419624761471,0.6591287034413135,16.63555856282034,0.4135294039661345,11.031871669390805,1.074817231859868,16.80049235545134,0.6678420657268732,5.6715896939139006,0.7582832314646406
16.851512018127323,1.8194676808971453,1.985718953733607,0.6665008930669969,16.841923905800027,0.413538633777445,11.034112487952974,1.0743888723241142,17.00614409478722,0.6711984149793077,5.711382386645671,0.7606915658469667
17.055989313639657,1.8278172433445954,2.0201928835085754,0.6739126537615201,17.04659907165811,0.41683603154222704,11.036422300368045,1.074882003499325,17.210203267386852,0.6765700527642808,5.7511037110655465,0.7637447091498829
17.263680476113223,1.8366937422127954,2.054849032198658,0.6816491541417501,17.253506504584028,0.42270408527408054,11.038804306584046,1.075030373658845,17.41356434926301,0.6816344658102159,5.790720673163309,0.7665422391083787
17.4674462758976,1.8444674772584047,2.0896610249306073,0.6891411806667403,17.457719562304778,0.42443545165489843,11.04125281810997,1.0750367771081322,17.615679023354495,0.6838989150304648,5.830309788286709,0.769183983351005
17.676384290060014,1.8534160236350266,2.1246353400320688,0.6966227745889927,17.665530971403932,0.42769504273781866,11.043776990806581,1.0754894578839862,17.817740294327194,0.6894197020495876,5.869783477361335,0.772163272254707
17.879947181951138,1.8613429707815938,2.1597860530766892,0.7042868843545781,17.869761775692275,0.4319448278806501,11.046373975014973,1.0750309444873576,18.01870416864591,0.6925869499581809,5.9091637108782455,0.7744577195945861
18.081010142617743,1.869126479155678,2.1951015239121685,0.7114743827404417,18.071275904999716,0.4281610329336788,11.049041379344976,1.0759670458306816,18.218369157810198,0.6978133809589213,5.948502651084183,0.777741086598395
18.279430720120217,1.876955419280237,2.230577254614664,0.7187081047566903,18.270132506166174,0.4310338777569381,11.051786652875327,1.0759674870839917,18.41633682198642,0.7034797721153199,5.9876774427236885,0.7803601586339768
18.472152812773857,1.8842982112863738,2.266204858147916,0.7259343722954615,18.463898199017954,0.434005531655331,11.054601711506264,1.0757127458973166,18.61194072088767,0.7060825742159273,6.0268074425273985,0.782740605943109
18.66901987237361,1.8933152110224787,2.3019796588238397,0.7335610810263374,18.659960978559866,0.4423504965819418,11.05749020664751,1.07493705611971,18.806455100226056,0.7073248544339277,6.065865577943343,0.784708956387143
18.85766830933244,1.9010953103554489,2.3379151049628755,0.7410266945437519,18.84990819897603,0.4416682537634147,11.060454782555448,1.0748516306097688,18.99844175336065,0.712604901565226,6.104798136324452,0.787197959281148
19.05297858256381,1.910858436486376,2.3739753417881673,0.7481160237905524,19.043961104694755,0.44159027467279477,11.063489922469122,1.075899315216385,19.189784346947622,0.7173223163912662,6.143720278916471,0.7904785408935883
19.245668966545054,1.9204024584917596,2.410185949266916,0.7553790867946555,19.23673918452379,0.44565935014448727,11.066601048905532,1.0762142863145283,19.380009429230164,0.7211083904366202,6.182531397531481,0.7932112748635817
19.425860295215898,1.9274092326130188,2.446523997766036,0.7625336808925084,19.419262884499624,0.448883911106103,11.06978587333072,1.076486203128166,19.566931937651436,0.724050656629792,6.221269829269527,0.7958867712154045
19.612558171862474,1.9360743526829203,2.4830031845612055,0.7696116796661089,19.604940201669603,0.4492722583923699,11.073043623780062,1.0777022710256494,19.752534540309068,0.7270474628078222,6.259992210517727,0.7992304684622973
19.796655379428557,1.9443570930892595,2.519615295884611,0.7765705985025516,19.78916763731424,0.4502424032652744,11.076379194605149,1.0781047037270246,19.93643631546723,0.7314502662247122,6.298554992842393,0.8019904851100639
19.976046586270968,1.9517701778223813,2.556356657774661,0.7838020365937108,19.969340078611886,0.4566598744426151,11.079789375361036,1.0779726467126538,20.11809580153713,0.7345788837740468,6.337020084081926,0.8043321922816401
20.15473120709794,1.9591714931558595,2.593232900976303,0.7906294651386386,20.14813580120088,0.4528306625816381,11.083273834916646,1.0781244239095238,20.297842206795828,0.7381840442313685,6.375407005201121,0.8068691234514108
20.33513124307865,1.9670562287756397,2.6302310893463834,0.7977999131255988,20.328028347303565,0.4600712580454415,11.086832954935662,1.0793910018410213,20.476377283873514,0.7448498569341708,6.413705817592273,0.8102461746936044
20.51760161275888,1.9753905014684716,2.6673453685832524,0.8046687423944472,20.509795998850937,0.45995102888395184,11.090466121420441,1.0803822217103072,20.654356751674154,0.7487518727854117,6.451947888168205,0.8133831737318008
20.704180758926668,1.9844861747273914,2.7045990588553366,0.8115564071520153,20.695225673322945,0.4605153609076045,11.094175195630719,1.0808447582019365,20.83270177129152,0.751047382858476,6.4901160103988715,0.8160987829974525
20.881289431854384,1.9912483602147923,2.7419730368503483,0.818438581108907,20.873811460706072,0.4637120269073575,11.09796095402194,1.0799297949236446,21.009450851242246,0.7517716720629454,6.528158418483435,0.8177579797794056
21.055583443539945,1.9969931820055429,2.7794547580415294,0.8251037035304403,21.048776326110985,0.4650500342794244,11.101823059641156,1.0800081278032962,21.184434603604206,0.7546812367762621,6.566142610604508,0.820154478670096
21.23485539113608,2.003355946042432,2.8170565411511954,0.8318711393315995,21.226998984490532,0.46825925618686054,11.105761800748715,1.080342271692019,21.358936273351627,0.7586718240412768,6.604037394510272,0.8227386267018686
21.412407960378914,2.0090966900575555,2.8547892326820246,0.8386058133277939,21.40449767969478,0.4683991829807699,11.109777932313838,1.0816165700683047,21.532792747844063,0.7611939254410797,6.641937539525282,0.8259973276770844
21.593115097453847,2.0155365802919247,2.892650877915788,0.8457017950006064,21.584374971089158,0.473762711686844,11.113871387473107,1.081161001458698,21.706578351133597,0.7648569883808404,6.679631234653709,0.8279614675311887
21.76681510030903,2.0207584637449925,2.930632263282583,0.8527455370327862,21.759122288465736,0.47533932185799327,11.118042754662916,1.0815416308226682,21.87907742708278,0.7680467761293504,6.71729345087163,0.8305319548299902
21.937387997706537,2.0258613968648156,2.968717926443344,0.8596051415531247,21.93034178620964,0.4765489010644204,11.12229177518812,1.0818888494676295,22.049878511200813,0.7716172794613373,6.754856722345228,0.8330677602897456
22.103142005231348,2.030694449918997,3.006925757944291,0.8667535155469568,22.097000565239608,0.4808764898216301,11.126616984318465,1.0811854075074208,22.21833399078478,0.7742951253851011,6.792278667550421,0.8347852954935975
22.267915784890647,2.03605081490874,3.0452242150693882,0.8735504368885765,22.261962684694623,0.4809093309569465,11.131019179669583,1.0808392395317432,22.384777601945398,0.7770078800543387,6.829629641996516,0.8367538640002368
