$D^a [mM]$,$D^a [mM]$,$I_{islet}^a\ [pg/islet]$,$I_{islet}^a\ [pg/islet]$
0.5187154621860768,0.23260650652783477,3.0385363483662404,0.4657692665245581
0.5666518624671714,0.2819530429366843,4.070808106308697,0.6673795580903696
0.6417240256597335,0.3038054018712447,5.058241812785676,0.8019856789162884
0.730781831221759,0.3238361659503272,6.0381300401060205,0.9031647766403693
0.8385446919397657,0.3455090095946822,7.073602214517607,0.9898399041429731
0.952585820525355,0.3696191570556521,8.079103690489589,1.071680974467702
1.0777037799735596,0.39288995632226015,8.979694296806887,1.1402660159764513
1.2010574333647897,0.4192166969288069,9.840903231760631,1.2087988761970268
1.3384433870937327,0.4430232245429175,10.8010629235795,1.26784229557557
1.4883286297340779,0.46858490371032246,11.666705027488113,1.3277828176563011
1.634010283046562,0.49310472201669264,12.632346825354201,1.382259193268996
1.7779902515917116,0.5154508899846431,13.46099645590047,1.432305531424365
1.9433591069957523,0.5390201995988595,14.355948540308527,1.4815994257310932
2.122465440381526,0.5629844708764719,15.265034035941003,1.5282985586115463
2.274383799283892,0.5899932485025817,16.16152024206077,1.5850610427972762
2.436740850752936,0.6090915132933004,16.834277075270336,1.620515333746279
2.639315901485394,0.6302256539209895,17.555623599276277,1.6511810211101174
2.841910216334109,0.6546407425713248,18.262388692431987,1.6849355580510301
3.0307206234608706,0.6812586365163896,19.108156929430343,1.7283447598700183
3.2317898265459557,0.7011322965389567,19.753241514434254,1.7564812054007997
3.4419196424876826,0.727237518102046,20.517064567360656,1.796587982498237
3.5987453923877526,0.7429379950053632,21.024821214893375,1.8138283872887997
3.8095891242164948,0.7642770572122427,21.697015609783524,1.8447447263784547
3.9876124120107246,0.7876483632885675,22.221812443628636,1.8788871735938897
4.180714747428476,0.8097603020596631,22.720172573420836,1.9092173880091408
4.361470554986861,0.8252716302722354,23.522489314415548,1.9278666280079062
4.584447307356986,0.8443531516767103,24.061480988705092,1.9562164219954647
4.811425122826632,0.8670373818093386,24.574036603351264,1.9832005280637122
5.075383351726233,0.8844776000142375,25.31158824889797,1.9969958943023411
5.2690508532837725,0.9019406576136761,25.840205274674073,2.0147676731451454
5.5190957680776895,0.9258119720488999,26.07613839082465,2.042376162442407
5.736563293266566,0.9494854779967316,26.888168645455035,2.0687962438235576
5.978397114761864,0.9656399428851619,27.102078647134913,2.0832507246841265
6.18306170118931,0.9812910434004575,27.493988710979295,2.089624939708269
6.404492945942783,0.9991871192937395,27.864630658727545,2.105130894244668
6.565569764137009,1.0195413871052506,28.114724502939183,2.127277507285271
6.75263207649824,1.0341709125280905,28.441574330553397,2.139736086739897
6.991736242685328,1.046042402424989,28.84186564738536,2.1446344750170714
7.196770226108059,1.067162964494314,28.91919612445196,2.1636880361656488
7.27492142342819,1.0769866896501128,29.360510911004127,2.168091892757976
7.493332614040094,1.0818042547866282,29.672407153584565,2.16985916719759
7.721960091803194,1.0984373828694103,29.537354562502312,2.178068864233925
7.863557169712115,1.123741143974607,29.914125629578503,2.203843990221604
8.024769496454216,1.1257978412502017,30.237834895334387,2.197330619574426
8.264297118636687,1.1415222554986317,30.36303080021043,2.210946812838557
8.486791450147452,1.1584738648234056,30.77218147862239,2.2222091592846573
8.64610488123986,1.177239934691939,30.757232297832743,2.2399789228203364
8.88978366286852,1.1862128712742717,31.155495195468834,2.237586187534005
9.071724985999545,1.206791690717489,31.627160173601176,2.263260351879953
9.35684194111057,1.2203835263934864,32.03704445742756,2.276175066256048
9.657564991529357,1.2364480628130612,32.14242034505196,2.282254329885197
9.9032200607333,1.2509518310701238,32.15139124121656,2.279331092072329
10.188779982041295,1.2606891667814761,32.137671781484144,2.2667265131873315
10.447582002500633,1.2843190578469157,32.169149935550635,2.2787066289385596
10.593993183617945,1.2950664360635644,32.10794935924695,2.273345446327361
10.77359361803284,1.3125111676286014,31.99184885925028,2.2828689913795546
11.001975157387518,1.31450298176012,31.733672118214468,2.259631865429993
11.269214008753718,1.336164607012092,31.243790252055174,2.2603882199593563
11.484865905547181,1.3473879979086247,31.103320188855644,2.242570577341089
11.657838270284676,1.364401375913163,30.966026764660548,2.244690644494385
11.87891696379868,1.3738226861600291,30.805847940372306,2.235767206593084
12.05047695605546,1.392687366201121,30.48779813955275,2.239626302924206
12.20736693305876,1.3985264015868848,30.4482906033962,2.225841439023102
12.29316612253666,1.3998015401917345,30.25657367295163,2.2113888039544864
12.436530824782707,1.4178404211347728,30.052707658805556,2.22271729181253
12.488113433131073,1.4239009085711984,30.138112069648695,2.2193226984632393
12.602654869223814,1.4167667971075404,30.14963214378579,2.202053757395756
12.67517592304827,1.4250401146921179,29.948483432285265,2.2043289552712135
12.882713700113653,1.4296410070128645,30.08855655391944,2.1984417008186905
13.116150257012835,1.4457710862549813,29.999631330462,2.2065596894226163
13.395120794452215,1.4653225934996625,29.87554904414609,2.2122762416888007
13.66791242061455,1.4754161972455295,29.89410104621432,2.2024314216071383
13.93650784732022,1.4846473867085905,29.787855298904287,2.1927248482480888
14.087059450884299,1.5106076902556806,29.294398411143383,2.204236022612634
14.186144522764371,1.50802471912142,29.123222684321238,2.1767045981015043
14.392221244444785,1.5219909950781823,28.905776491764605,2.1777424169626305
14.655069139342428,1.530583087659034,28.6769124078144,2.165130442417526
14.87761126251289,1.538102885632553,28.294663560629203,2.1471761241230154
15.146852584121355,1.5581542454643658,28.009668899422948,2.1449429456067275
15.438388878934449,1.5669802766369514,27.66338420109717,2.1255509601121445
15.62341521196637,1.5813153030365288,27.869927053485753,2.122714905973684
15.916959358403021,1.5958980973937618,27.38799896738284,2.1222551769303384
16.21606381667879,1.6072188737631143,27.28170653744425,2.1070573153113266
16.238375105647425,1.6164603836594558,26.9476061854448,2.0980574202330073
16.402660119236348,1.6270938093891931,26.57629820914642,2.09250189582659
16.52896825715169,1.6384274796745835,26.2032554886488,2.08362113814605
16.685281969303578,1.6396243272272564,25.626464610244373,2.058602584132711
16.81507769332287,1.6361441083017185,25.022217009292156,2.0228734785901197
17.05855040262866,1.656624111572304,24.48295571314856,2.014625851216212
17.338856413980878,1.6610316324840564,24.18567370807605,1.987008481675712
17.5356732752666,1.682532653467966,23.82267396432153,1.9845064354706043
17.680055831351176,1.6825071468111832,23.558778602582134,1.9607231828615002
17.97238118498304,1.690976690209197,22.99820780073268,1.9431739918987494
18.150208757552125,1.7084102186500496,22.73563937331255,1.9327071206634783
18.135043245526543,1.7107652910273605,22.482279220509223,1.9173089405635748
18.359528376881265,1.7164860489270728,22.303770398684023,1.9091053963205324
18.562217694133484,1.7189119870270901,22.15060237806345,1.8940941014179822
18.700508280678896,1.7360728123037534,21.9281014059502,1.8961188416484904
18.769604845564558,1.7471466918697784,21.694042280550573,1.8925509877491526
18.981965803863414,1.7418666004097796,21.191312382617223,1.8657169897236436
19.22944829582811,1.765872760423479,20.791081850533708,1.8616832630350573
19.302713169153872,1.7629797547990893,20.637346104411048,1.8363096690943468
19.520511479138257,1.7666934186201153,20.089925007285014,1.8188364312765672
19.726412913715787,1.7857556587397112,19.67627019383737,1.808146899688182
19.940538696388366,1.778920673276236,19.49028975256678,1.7766125940746578
20.07503578539578,1.799727772709421,19.15837360833305,1.777280584654368
20.376180197874383,1.8000393509389017,18.76149509368748,1.7525197795554996
20.629900220330555,1.811827514823249,18.55792772289083,1.7378322032828917
20.502128410746785,1.8123501306232621,18.10728694312057,1.719048660545982
20.658637123153614,1.8240626604351837,17.859812426007274,1.7129410726469765
20.68079222584735,1.8249758606352078,17.430580351115047,1.6944119566380904
20.825380876103665,1.8279678212272932,16.942935488232756,1.6729514835478887
20.98756276141946,1.8412807177488637,16.764688624804897,1.661835185960826
21.16363650669789,1.8481965852977469,16.414808671633935,1.6482301125175718
21.264566898614856,1.8457985312128948,16.060776338215582,1.6235776233232493
21.298986934463667,1.8490668476376209,15.820449500601363,1.6080207161089028
21.26823717456457,1.8460413037603274,15.290933436015598,1.5864962577010648
21.624636063309605,1.8584127690267003,14.838616559264738,1.5681448720100881
21.811784689463288,1.883956182550067,14.47453898791004,1.5582199270181378
22.020211102169252,1.879742618397912,14.015733568915795,1.525661062882663
22.00259672110785,1.8808769620357937,13.716837540041858,1.5016151548275574
22.06144215142437,1.8844460696478604,13.330990034015151,1.4847571508144908
22.09949552246912,1.8922114520067386,12.93814183661313,1.4682234572968944
22.327041918960646,1.8929991098393524,12.484252179858677,1.4419180975424355
22.202281410774212,1.894944193951698,12.195619991967714,1.4192471362238845
22.160478565674346,1.8943952364440437,11.82004155495072,1.4016694050017893
22.420352287419302,1.8925088556675815,11.525036027636135,1.378344594284465
22.512339553326118,1.9021070232908823,11.150390698672508,1.3605485940602764
22.498697228747176,1.929569959529309,10.810530727025332,1.3568332566470611
22.681459516575107,1.916583096389078,10.51387519597189,1.3254633774355458
22.79132811528994,1.9148392950571431,10.120866976730493,1.2993184680405248
22.88698923738987,1.9267334088941859,9.870441017751961,1.2835964956337944
22.741111854381508,1.9195414096847163,9.580120685038759,1.261053743576842
22.84621375009956,1.9242211129183382,9.256385540604555,1.2452958479926437
22.880915808750075,1.9294662412562062,9.019440499485992,1.2281659046042936
23.471878012573594,1.9262709467358936,8.747829048200318,1.2021166490607837
23.57779525342173,1.9413015062540129,8.506053765882577,1.184917617937869
23.604581489948036,1.939655324102764,8.244046889545382,1.1640125698651682
23.494747480398328,1.942459960297886,7.893516959537891,1.145511726222354
23.555779840307572,1.9463631656682225,7.578905426958743,1.125211627757246
23.560313910682584,1.9514909337813062,7.195605927388327,1.1025624866590833
23.94944890855326,1.956836935404222,6.910647194370584,1.0765971094412574
24.06830691819173,1.9772393568325457,6.663255318669664,1.0610487925355294
24.176820199693022,1.9722763985018619,6.364128820387097,1.0342347137116212
24.272700999519834,1.9757221148471036,5.9901233842499675,1.0079972004163107
24.210078403622425,1.9727599835050424,5.719472477524562,0.9793473124944239
24.41752630476545,1.9850029908770532,5.451831001158792,0.9611102324909373
24.506407736009525,1.9743411229702919,5.181145109562689,0.9301818477791913
24.330835262157667,1.9915161824741023,4.932854596895751,0.9155937639679881
24.479081071522977,1.9874294593623711,4.70670448523388,0.8923913837987103
24.454569965447597,1.9810024532858532,4.47540968723309,0.8674722802286622
24.55217756596284,1.9893474521732692,4.229710776208764,0.8481960931199595
24.395207766883292,1.9852741516075803,4.006099925931231,0.8240075418155928
24.512175602488867,1.9810890490055237,3.766623798935871,0.7996492795925437
24.447737807932217,1.9790191322468775,3.5222689809047494,0.773906475017793
24.46928318980169,1.9840514783915937,3.2999712386124034,0.7513422413943859
24.692929449161902,1.996005426561134,3.055546830263585,0.7287358881474507
24.847218821281547,2.000796802569151,2.811262500243194,0.7000845708920267
24.862962562079446,2.0198302485156954,2.588240762004618,0.6773149411047584
25.02918255412622,2.015181339299246,2.331561975382506,0.6448008566785719
