$D^a [mM]$,$D^a [mM]$,$I_{islet}^a\ [pg/islet]$,$I_{islet}^a\ [pg/islet]$
0.5191386513657222,0.08720668464448308,3.039775101817803,0.17973323436352734
0.568744131619619,0.09155646258747009,4.077876450218602,0.21934591495677147
0.6400795206630252,0.09623118008172907,5.1077899286268105,0.2554205090286475
0.7282842830695302,0.10200069307011689,6.12172949673318,0.28647028026843047
0.8294821495291509,0.10865360676483247,7.131012456873869,0.3141005369652623
0.9421343300743052,0.11641882726022737,8.121573508435107,0.3406691880775318
1.0637793007583964,0.12405593737858343,9.092807038460345,0.36376278873789875
1.1936413370315966,0.1311557982257237,10.057151726812748,0.3831427557840194
1.3313347635624342,0.14019451275689987,11.003129993930127,0.4066269168100806
1.4761664544089963,0.1473537401961648,11.928175883791695,0.42326179269337466
1.6273558015354574,0.1553925766763746,12.83749000068985,0.4413956735675072
1.782179900902448,0.16305106034681832,13.732059101575661,0.45772565242586566
1.9431106944039425,0.17098280785444783,14.589751130000595,0.4742178582387902
2.1076916219240664,0.17726565575376405,15.423623049742995,0.48536542301879904
2.276853911725735,0.18478274859470153,16.238270441318583,0.49949194816737263
2.449933820232105,0.19249309871218365,17.023318023587155,0.5136327814496761
2.6258782077013145,0.1990904259218283,17.82743052118257,0.5246253379534052
2.802397103400433,0.20611414343077425,18.56725470563696,0.536679075183601
2.984814792639701,0.2140160807837417,19.298980197405236,0.5504915720703822
3.168851477519401,0.2193573109221964,20.018289944673455,0.5574793524997148
3.3594227523252287,0.22773929295958,20.71928981689599,0.5719864556162803
3.549422289076284,0.23481822351907802,21.370261588311458,0.5827068331114498
3.7435811737237,0.23927977226130417,22.00465748800009,0.5866421972991743
3.942882225558315,0.24545237863946442,22.6015027824452,0.5944595481603401
4.140852757325316,0.2519101795508354,23.209914053886273,0.6028353374941534
4.345518091674903,0.2604388043939754,23.776918672314462,0.6160052225036166
4.552058971814937,0.26399341434580065,24.32775494067367,0.6169776714980989
4.747175296875996,0.2697853446835667,24.835050495858386,0.6233913001976433
4.955063749052768,0.27585391196160336,25.353804289420005,0.630468377041903
5.163873289475239,0.2821452662175751,25.805988901680607,0.6375776288300453
5.371943059547707,0.29044575262285105,26.23364348640888,0.648739498254407
5.579578051977644,0.2943232922938086,26.64228515379056,0.6498782088096867
5.790688599060541,0.3012948322782985,27.043929861857443,0.6578600552964289
6.002829832330649,0.30820475291310234,27.411243317416396,0.665465732605302
6.2096857385108555,0.3117232761468582,27.745457444671143,0.6655927367625044
6.424178091801575,0.31793479718944523,28.107819383334686,0.6716060755846213
6.638545140464021,0.3212115786645702,28.41647328648907,0.6712666540466677
6.851810718118128,0.3283801475625158,28.707836101569683,0.6788841918109766
7.062061605333564,0.3338286631282184,28.99950675822949,0.6829641355600923
7.277007952820982,0.3375132056636024,29.2258657511405,0.6832449102739875
7.4990984297799805,0.3432806473429062,29.485869421250555,0.6874340669437958
7.71382223124085,0.3473649468158118,29.742727340432868,0.6884562663338383
7.938568627443767,0.35372194079167196,29.93958671853412,0.6938463472274354
8.161826336607858,0.35822835395915364,30.13800498777868,0.6951578915295915
8.375099296262535,0.36553353857625737,30.298499470242817,0.7019462984918399
8.59201560043159,0.3684487267635141,30.45493345696163,0.7002776530581252
8.808063459640566,0.37262147852252586,30.564778528563156,0.7009223999560492
9.029338296589582,0.3769455402819458,30.679005630983475,0.701611453514053
9.249492670001366,0.38203560287705707,30.78620162047116,0.7036900667233833
9.477994280567701,0.38727244058581495,30.875037184366924,0.7058931483188499
9.691863920950897,0.3909227667022672,30.937799976658482,0.7050996507741739
9.898108511503922,0.3976384565983082,30.974828223056974,0.7100212689734614
10.119840672102772,0.39987810137552393,31.00467730977397,0.7067159493385518
10.34045955588856,0.4033365201593187,31.008647719017862,0.7053256769752896
10.565361147344829,0.4105625934245421,30.996502015421143,0.7102998559008138
10.767656338113596,0.41151918065668747,30.9695050091664,0.7044485142986846
10.980835063843651,0.4155737336158874,30.923264413135996,0.7041541424703303
11.195126287260145,0.42132274107901957,30.889327857571573,0.7065401478050758
11.415838673677891,0.4255001168859345,30.82654122352272,0.7060958612041208
11.642070429077782,0.429924748287713,30.74646365303517,0.705744358967635
11.86774278466916,0.4345408707301879,30.666858163775224,0.705503911884657
12.091603741382874,0.4383461628701576,30.574770106393395,0.7039993154134854
12.315385611120712,0.44422329635112945,30.46545318348482,0.7057088414105903
12.543081507519542,0.44933929045311766,30.324829316917217,0.705909634213666
12.766371440367587,0.4498835838352473,30.172468359755488,0.6987288475639093
12.995340654819358,0.4548865744474669,29.995197365308673,0.6984376540271567
13.221247667956252,0.45872229504987994,29.810461660021474,0.6961029875855647
13.440647611572956,0.46127199658637225,29.632257108130574,0.6919277160753364
13.653412696333424,0.4658063699592006,29.471307256734526,0.6910908830219266
13.875709368685632,0.47040202033873196,29.315081488440768,0.6904785759250965
14.073452023862304,0.4739620476286259,29.11083716870332,0.6883314649349895
14.284338680341621,0.47614352843075874,28.866174036944905,0.6839253626125738
14.502665797563964,0.48113215622589095,28.620993315710507,0.6831060320665844
14.722983350236614,0.48534229624580605,28.415620946894858,0.6811805809938374
14.930126315572005,0.4886084462329849,28.15553240480818,0.6779954442967833
15.156884200957771,0.4917659340760579,27.923155536593843,0.6745109276208427
15.380117024385468,0.4924931916374358,27.677635865598788,0.6676535678834477
15.585909148716967,0.4999490932953441,27.406597425907698,0.669962635025088
15.795333196470866,0.5027834056788767,27.105219636722474,0.6658078404458165
16.010062049681334,0.5068992257815284,26.82495075004124,0.6632353744909091
16.22718981795518,0.5079632379220937,26.52743003028209,0.656632180752102
16.447341568980168,0.5153449374171857,26.21999780112987,0.6580016131127956
16.647835400139066,0.5167790413996711,25.90424466974362,0.6516931130285554
16.870327947787057,0.51975821260107,25.610673354324113,0.64747634511611
17.068580868388942,0.5251475487086398,25.271268800247547,0.6461688197730131
17.280743417858872,0.5287862777125379,24.953347252984877,0.6425546110130618
17.478955910833793,0.5314233291850152,24.65106391274095,0.6379066018998913
17.690221074883883,0.5324716576445868,24.330351934033306,0.6314466304098687
17.89264494557471,0.5351931480698657,24.006858808388895,0.6268389424252488
18.109648517743395,0.5354682701640922,23.685097515244063,0.6193477421698572
18.286144986577657,0.5418723154935043,23.362010724057825,0.6191006703428615
18.490513275159486,0.5452279956500348,23.05366056166306,0.6155012057812603
18.694656459011117,0.5512203314399107,22.72855270462438,0.614668117216496
18.893853664998268,0.5543443170275049,22.384930311375037,0.6103641783661179
19.08139423164199,0.5535325275077174,22.047872626405937,0.601704430314954
19.28404135116434,0.5583009653269748,21.69795842322384,0.5991988092447217
19.482191277627326,0.5587804837155566,21.35179635835857,0.5918539261351986
19.68829811753825,0.5600519483163617,21.01132688741322,0.5854286185216807
19.88327827093064,0.563955591481491,20.681647990397366,0.5818420820463871
20.087778373892466,0.5645599333501177,20.350507006451064,0.5749356101057406
20.268025361184616,0.570285985479828,20.017326982055618,0.5733041256559832
20.463533454896307,0.5738761510568463,19.675004775111987,0.5694508099176117
20.652739683738766,0.577978775307379,19.328056247524245,0.5658880133795399
20.848927371724383,0.5800167674167162,18.994281919168465,0.5602795881073397
21.041531742056403,0.580916203546048,18.671370739032437,0.5537195497489296
21.21970947905,0.5872356354943364,18.34135875461399,0.5524459045109964
21.409856449168842,0.5859061903608117,18.005455479828715,0.5438549875687736
21.582416777386722,0.5904765151410664,17.67921450034403,0.5408021863029515
21.720102043240903,0.5938769941382885,17.34380581703169,0.5368692762642583
21.903425591377694,0.5916565584462903,17.007559456731027,0.5277903727019326
22.097820671538805,0.5923000751688481,16.694652611210802,0.5211559093835254
22.27844918386418,0.5997697740466715,16.381199422793706,0.52060672441154
22.463284591417676,0.5986399418263108,16.07408290119907,0.5125706405688306
22.643258817078145,0.6053889993864547,15.770100944303035,0.5114134855300244
22.82321135254933,0.6085290565236744,15.448233738854364,0.5070044392089705
22.984099901723003,0.6110308423451242,15.144555869507986,0.5020710210432467
23.16471409826747,0.6079776269601176,14.849826154634924,0.492794873742564
23.350361406663275,0.6146373876819056,14.561227072372272,0.4914496103870509
23.51686869468698,0.6149246687281773,14.2697606918444,0.48493825221149117
23.686547167135327,0.6192574979975191,14.000658586440453,0.481834079549323
23.843206303271117,0.61773571977806,13.726717421518243,0.47433362405299895
24.012157791758007,0.6204789994512067,13.44469804670941,0.4700961930077334
24.156290108046143,0.6236638178451599,13.189602697753456,0.4662613640261717
24.297959602490124,0.62434145452992,12.917436197159484,0.4607412594511429
24.452720009276444,0.6303818310685239,12.661952729827153,0.4591132235635026
24.603844807934543,0.6329944596435395,12.40102965152048,0.45493226031666
24.750677903768306,0.6324737678810722,12.153182023838628,0.4485473182816357
24.894800276304476,0.6328633407165724,11.903728439280574,0.44295815250312814
25.028216636183245,0.6351551249608289,11.65698016606788,0.4387377752129088
25.17469395207387,0.6390497356844563,11.42894347472391,0.43573866940611716
25.310286710281655,0.6425056536262436,11.205149477200303,0.4325480032069226
25.44792471365019,0.6428644308380904,10.971052281470882,0.4272581517987755
25.589657328021428,0.6407042991454677,10.751362169430243,0.4202887711884276
25.753416558570446,0.6426740276844991,10.537653700421789,0.41614169679634
25.888052630948405,0.6465643190889137,10.342035701351255,0.4133600553407443
26.032956505520097,0.6476490532075457,10.144588600251062,0.40901316919268094
26.19265592142316,0.6482985982748597,9.95198908939239,0.4043417629495419
26.322833755460177,0.6541152821789333,9.759088740442333,0.40293366458596147
26.45350130279759,0.6520277342569968,9.5831100431897,0.39684047929861194
26.580576602789414,0.6547543266899999,9.41041521323098,0.3939068165356249
26.722042586970943,0.6537789233582103,9.247229986476858,0.3888254501131797
26.863162842731697,0.6576131173750166,9.098309732397476,0.38678996606039073
27.007384401259785,0.6615221754838101,8.951196720086639,0.38488273213284097
27.10978186135855,0.6608954118476209,8.802793688428434,0.3804521887507687
27.21464858186267,0.6643494007003201,8.662497782291608,0.3785914040912436
27.34693530181418,0.6640851934949706,8.531458046818052,0.3746685422551146
27.475758528080963,0.6649281447903767,8.413201305862996,0.37149658184448264
27.596410995164735,0.6670877888392343,8.288638118025368,0.369169091287562
27.741237283426578,0.6643660520791949,8.179281254859259,0.3641695804745227
27.867242591275225,0.6687733630415862,8.07399179144151,0.36329326881762547
27.964460188862958,0.672513486449223,7.981755888735196,0.362303601050958
28.082511500972945,0.6723863251604647,7.890689425035479,0.3594387437716639
28.19233544797075,0.6746881234698648,7.808197364580283,0.35795149640385804
28.307313372827153,0.6760940263855526,7.736015808807169,0.3561479412924662
28.43195084622857,0.6779074558067685,7.667642096833426,0.3547207656464448
28.575500228598372,0.6750688137116966,7.612487541954618,0.3509585245331663
28.65982306614376,0.6804291802550275,7.57248244400677,0.35182860980575187
28.794545107421555,0.6789044059852287,7.537741195534668,0.3494437482438919
28.93682281888491,0.6879457216578758,7.512361527118438,0.35254360398576423
29.080098709868444,0.6878589319527756,7.48555657400399,0.35099347582908874
