$D^a [mM]$,$D^a [mM]$,$I_{islet}^a\ [pg/islet]$,$I_{islet}^a\ [pg/islet]$
0.5186967821786491,2.2246345865677855,3.0384841401305462,4.4492690837068585
0.5266085852831585,2.781816580994452,4.08877463588815,6.570134302480082
0.5565450086926178,2.9260885975729565,5.137370230351609,7.977848458162167
0.6069623752903659,3.021759381708302,6.186288946026349,9.04313002101498
0.6744981375266045,3.1771727278466755,7.222988213494402,10.025248635036153
0.757514153150983,3.332352608471069,8.253407150395061,10.806796649413949
0.8535031360300538,3.5133622880396405,9.266834644997095,11.513527818308146
0.960169939874592,3.746324153048033,10.275662970634441,12.278667993528845
1.0762820354928586,3.9664366810723113,11.279613994104475,12.919776513055844
1.2024660910644414,4.208379104839088,12.259554540369455,13.568775658559444
1.336096834737431,4.439564586778683,13.217649482734029,14.12608951612007
1.4752044778545494,4.688651378737713,14.162385286135903,14.705388799557365
1.623078152261267,4.899235818448115,15.087297837095095,15.134233749653541
1.7746393940748628,5.158344096008721,16.016102192684283,15.69354624084673
1.9317292335494918,5.3976527161895955,16.908486353660916,16.17700404153169
2.09391545520252,5.608439880229681,17.80448415744445,16.559324718344016
2.26272579207887,5.868759352203471,18.67546540657488,17.076875165441216
2.435537254064856,6.0630669011381375,19.5149683052469,17.381535803675355
2.6092778702161006,6.303691209369715,20.331611623772023,17.812328335220275
2.7875351933914954,6.50891021702716,21.134115408009578,18.136444282941987
2.9751718461128003,6.748624701441943,21.93736473490682,18.5459077140462
3.1651520841457903,6.9725822294705635,22.714211625731174,18.898913253659877
3.355355779721055,7.183223216833255,23.47679537227337,19.212815553640734
3.5458464318678393,7.3443177810011475,24.190470041366922,19.39412765154754
3.741756428005942,7.578379033935164,24.860624327211458,19.756714230199325
3.935656896906983,7.856337560614869,25.582178134274848,20.229653890999245
4.134365224772332,8.018957581308872,26.277086664211097,20.414973355892894
4.335149828902562,8.201136321764645,26.935440686611507,20.644181666328283
4.538585830663726,8.404154443660945,27.576961615775243,20.91797735800661
4.742373872818891,8.563894659231616,28.198135375395672,21.080790823760804
4.9456914430018415,8.831355701718913,28.80529452064496,21.508544402915888
5.1562118673514,8.969443148637993,29.382573152283022,21.612151421802096
5.367601864962161,9.133204760731696,29.911972519049478,21.76639008962473
5.582899913379977,9.367956891123772,30.429886857027356,22.079586096662165
5.794985962442107,9.50883605529635,30.990180053211073,22.17575479914298
6.01108672698052,9.71048096745597,31.512338942598394,22.424655083225428
6.231987256665391,9.913266034751029,32.00930105346716,22.663623557747588
6.450724716505752,10.007751590942814,32.46777207744041,22.646865021275026
6.661729840292694,10.171733350226214,32.93831839443369,22.79665814435531
6.885482872620773,10.377195455108092,33.39994978617686,23.042474413915297
7.104507088516295,10.582642936616507,33.85857127309342,23.281964125123558
7.327020792124014,10.780097526890852,34.266834039485225,23.500201400452102
7.542005726709531,10.972556814323147,34.68019004424679,23.704086410772724
7.777325884480109,11.036984271790843,35.05778104564929,23.625181182913167
8.001693200491639,11.279392560228837,35.45041470276666,23.920654029335825
8.2313475191419,11.399751707300926,35.80975759105842,23.95953309159173
8.467525237635886,11.601727123014117,36.134311989726335,24.159027359000575
8.698232719009578,11.738861232208743,36.511676156689006,24.222875865629803
8.93505371141173,11.938386917928309,36.844199021210244,24.423210862329967
9.166991058806897,12.098824305141534,37.14048895999329,24.53325113004318
9.4062813396043,12.139382780615025,37.395335927374695,24.392043981415824
9.63293435618053,12.365214539019552,37.6880554077233,24.62764008821962
9.856542760130388,12.4999325717771,37.92323275804849,24.68988764471223
10.082394141930473,12.665625810344766,38.1551546757716,24.809464408998608
10.31807833026361,12.766514324317392,38.37873343450295,24.79632499602691
10.546473652291622,12.924702264368998,38.59045736840904,24.89266110287839
10.787218190489776,13.146950215554895,38.79466317944842,25.108577708486607
11.02328267076445,13.23367467367894,39.00804249796974,25.061090689910543
11.250403541453458,13.359892381145581,39.23235704492273,25.10216405996169
11.487255012761322,13.385683642216453,39.406588332884986,24.95574871709279
11.718249334070855,13.666497371787287,39.55509403392649,25.27544818465021
11.947992859905217,13.762446263281072,39.74330743115263,25.253216057688157
12.190152831925458,13.948707231979187,39.904158316416826,25.39945227135063
12.431817549860407,14.01822290952869,40.0197183126616,25.31880620038523
12.664007308479578,14.208932865872404,40.149526023637165,25.45758597292416
12.90508898700228,14.302799738057743,40.2828684785105,25.426602036704853
13.152202850766423,14.499415361674929,40.42256160538837,25.5768479224368
13.374877854849125,14.580797448559137,40.54359984097618,25.528598425788488
13.603874695103285,14.742227300943924,40.657487962474875,25.629755116695343
13.840582805305253,14.866184352096543,40.78507211314412,25.662210084044325
14.088491258315099,15.131154166745425,40.89358099251474,25.931200373264144
14.324235624010013,15.185456064151888,40.956421043013904,25.827575865971173
14.549370542590104,15.26843516491221,41.01636316384182,25.778010229264655
14.791531773437008,15.398246483219355,41.15616663440597,25.8176546716258
15.041501156713041,15.49196441940672,41.289807423892654,25.801086683564773
15.299707646928798,15.664288580521514,41.34722247488842,25.901930125524984
15.541724175139398,15.769530939081337,41.395021934390904,25.879607011033947
15.784095456245891,15.912836820441722,41.47347244602812,25.92880652297233
16.012543901818177,15.981703690604405,41.52911453466783,25.865217690653758
16.251215310594652,16.03438202174451,41.59015596414646,25.77899142966241
16.507353060847027,16.27230155044777,41.64349658750578,25.98301124680215
16.751140625565327,16.475217341073304,41.72286196541516,26.126846225580707
16.998836343538628,16.52608613554097,41.77391869549018,26.033930716975867
17.243013371885713,16.57083336449104,41.81110779545337,25.929497447160312
17.477653583883797,16.78594348742392,41.89595124189298,26.10044909913506
17.711352355214053,16.93476057523701,42.00258273466331,26.18127211749221
17.933631063973877,16.909590129256845,42.05603132127269,25.997660731457653
18.161118281247877,16.952000028049916,42.1670657363964,25.923325845521905
18.379778726371136,17.180696974986514,42.246391241626064,26.140815126552074
18.61117097107149,17.24795203169017,42.317851594310895,26.105259538791845
18.860280876573004,17.39039005127012,42.412389943109304,26.17852559646279
19.091766440143484,17.481942405073507,42.54369457075119,26.179854276823068
19.3348575313662,17.629721395505925,42.60917103624866,26.2682790433971
19.59414675752276,17.654051763148267,42.71905939039589,26.161295043061127
19.85595737272591,17.723135079327285,42.801759549109555,26.119253771382922
20.09139289151006,17.842232559138044,42.951607987833725,26.161767795650054
20.3309343037922,18.027669848494345,43.030990607188855,26.311525174566384
20.57482575566328,18.090082365600104,43.19623493841262,26.28058661812531
20.79349587959172,18.187594130795276,43.31412739233618,26.31455621719769
21.025093752221498,18.433205001327664,43.533425153396145,26.573216734935205
21.27351962882767,18.402661331768616,43.65405489683555,26.430651954065024
21.51171724608747,18.608449881331556,43.797172490403405,26.615319894235984
21.730214368193003,18.694205366292476,44.02417305551894,26.645933668436026
21.97608301251242,18.779401058867947,44.17770085532439,26.682977123020965
22.22405647008509,18.910352604953093,44.350881985451245,26.76901449197341
22.461330731363002,18.87089565454235,44.50282502537123,26.61472477378797
22.68180157916371,19.12580817144944,44.69274101122681,26.88691740923623
22.915748482536465,19.152475032368677,44.905599006116404,26.846138271065637
23.139633328842546,19.220838850695348,45.14824543336708,26.872768716650334
23.385163796421455,19.32986839550965,45.38900376006006,26.960388440375905
23.62793382291179,19.432721414700346,45.62744677109376,27.034091113510325
23.851558790421873,19.54594594760501,45.85661947283617,27.12541833859256
24.094120263186035,19.666944921427813,46.130510820185464,27.233162380729695
24.33481420111236,19.779121479866802,46.424399008005445,27.333475360890567
24.575190962565866,19.83530826719582,46.73772500449829,27.362367157244076
24.79400278093804,19.85539464825272,47.0220577502399,27.34790544874976
25.052372747208647,19.916647716909967,47.30265791416044,27.384676521406224
25.259714568522142,20.14199512362503,47.65101495215561,27.653804824476733
25.504933132229617,20.29411844970219,47.96642941128424,27.833191578751208
25.7404960809719,20.309403995619437,48.324772902937696,27.81902559875479
25.96686321944868,20.336231235335966,48.71599979428976,27.83624082383202
26.199166447567702,20.503331682994922,49.11814667044599,28.053190589328995
26.43210553039305,20.596890272765403,49.51083446143988,28.169417254603335
26.68141629964358,20.664721356898436,49.96605230748363,28.252656720930485
26.921849852961138,20.829433036192107,50.435754852463724,28.477263144625862
27.181795610738703,20.854570218475185,50.95330324749083,28.516361282693623
27.437366808835584,20.91696103055439,51.43093751204533,28.606904547869398
27.670675597351863,21.064887848307265,51.96655064781894,28.81963505466228
27.899408311795725,21.236461999019696,52.41926993886933,29.070270512943136
28.138574316836145,21.298268567495633,53.02944296468495,29.17740619013217
28.39130592456469,21.232928905638882,53.5925141134808,29.119966194023387
28.638468275183822,21.500450748169666,54.12919369373674,29.51115114671937
28.887008565427298,21.643772356186595,54.76767417040872,29.736434925207735
29.108665500271492,21.536245649797117,55.420768553694025,29.63809504924764
29.350700304758703,21.721441522139465,56.0119195712137,29.944513556074103
29.592525833964846,21.8811817314984,56.70597337386227,30.211477724052585
29.824162928057287,21.874110210125764,57.33728238006396,30.256190307074192
30.05526671817793,21.975706047892714,58.02533454356233,30.453024716786842
30.313804042114892,22.007682676871934,58.8293989112773,30.565979230805656
30.541220459687175,22.146968027580943,59.54577895777469,30.835892500156064
30.759267013099887,22.206070387003965,60.4036630641266,31.005456192543797
31.001130645774396,22.31071924914446,61.187556477553414,31.246975322788362
31.27631819458658,22.351151667742208,62.04887352909175,31.3853513679386
31.528866699061663,22.583839419786493,62.883110883466415,31.795221116604296
31.788168167909888,22.622997288741253,63.813033205573376,31.94143068594898
31.99453035609037,22.73476004980822,64.78936264449149,32.21639450005166
32.247298219899044,22.79783421603309,65.77884992575362,32.43395650086202
32.500415520568616,22.76219628520219,66.7359680047437,32.498973245232406
32.75307215278654,22.927848971961076,67.7617068817106,32.85224553082234
33.01494498426533,22.96482720602573,68.85482903552327,33.03130974243063
33.22032168126058,23.104037769138895,69.9349027616943,33.3728172613683
33.45836122774551,23.230205838145853,70.9916544091279,33.69975399806515
33.7093164963047,23.313368644570414,72.11600675738195,33.95940503684903
33.94784452089216,23.44884083781683,73.30570470794308,34.30439288050598
34.209473521976015,23.4059320535678,74.55219273802756,34.398599978563624
34.45043382945878,23.540027883166776,75.73000277214273,34.752282382457814
34.72708577957675,23.624239942835974,77.01133799202763,35.02993266337957
34.997565218926674,23.62283905534986,78.32192730659801,35.18445992374532
35.24450215940423,23.774750157101796,79.59986042897319,35.57308273628393
35.56012077474728,23.89487820610551,80.91421045011381,35.90548507213676
