$D^a [mM]$,$D^a [mM]$,$I_{islet}^a\ [pg/islet]$,$I_{islet}^a\ [pg/islet]$
0.5187300986232983,0.23413344209106426,3.038176531310107,0.4688301828640208
0.5680061613630277,0.28307213730797465,4.075541805076329,0.669988260676912
0.639042516036138,0.30350725281672025,5.103029797733573,0.8030336208022405
0.7266231168068041,0.3227676084414024,6.124130904477995,0.9066163674076817
0.827711959528847,0.3449045418665526,7.122170699523842,0.997825938289196
0.9396346949289986,0.3663460426161396,8.114681579575633,1.0726307996656363
1.0607066430151681,0.39241527781963753,9.09084821046269,1.1517884153923659
1.191367216447873,0.4155842340646415,10.062716947727742,1.2155180443249152
1.3303775047695232,0.43924869493303337,11.006256411960399,1.2751474401640628
1.4734325858381967,0.4641587612737747,11.930350392469942,1.334235976934209
1.6226521891622636,0.49028630701173403,12.825055920257068,1.3939736922025223
1.7796833821267275,0.5161566263127915,13.701065305535513,1.449670228064196
1.9411827515182052,0.5391011197363001,14.56395403022123,1.4946463023041334
2.1075958374231982,0.5633986897204981,15.402008530546604,1.5418714709434445
2.276716268728371,0.5887330142999867,16.23467790247704,1.5906642835267364
2.450999727985754,0.6090283173757548,17.034220758593268,1.6248997673046057
2.627854754026146,0.6293493849961557,17.81362842198162,1.658030221330533
2.807823328401404,0.6555886026764021,18.571315241503562,1.705720220718785
2.9910805937173146,0.6783710816289468,19.27971423720316,1.742897678583061
3.174065619230993,0.6997307340117587,19.977099514315004,1.7753974627950915
3.366597538533622,0.7190937206987644,20.676860974242587,1.8024638862112532
3.5570895685283457,0.7416291648288103,21.325735032490442,1.8364650632173911
3.7495319070025164,0.7636895833834056,21.95903015436445,1.8685612898346564
3.948143882846437,0.7818060889014132,22.564231577731356,1.8900873512605605
4.142250397542027,0.8003152694195763,23.1470213787041,1.912158322414905
4.338519010014601,0.8228023304956645,23.736014815274007,1.9441033056987231
4.539545990446374,0.8419102162459858,24.28196636672229,1.96758774581831
4.74278041711942,0.8604205181983225,24.77434994922953,1.9879854098312364
4.948043726298006,0.8740690759713987,25.28074211619742,1.9963161244953942
5.152841806781328,0.8944696554570502,25.762534813739244,2.020490092994569
5.359241058762789,0.9110957653829265,26.214718864291147,2.03563651639621
5.57074989412217,0.9285819241694901,26.639672371950997,2.0518466959969994
5.782474177158766,0.9462020160778675,27.050231851740175,2.067558196344982
5.9936806799004785,0.9663380789641877,27.428898268387456,2.0883750925961606
6.203164749585433,0.9832326104677183,27.794524868663732,2.1019507382165736
6.420804741157844,1.0017632045062903,28.145162441967063,2.118698027327756
6.639706008327156,1.019191875715962,28.468016976948828,2.1319288642017926
6.847985603394787,1.0406089464186148,28.79020149591239,2.15387787081868
7.0633501090996385,1.053643541373931,29.091149918967524,2.158781969418141
7.283073253800205,1.0761569762884389,29.36700093528174,2.1821987956151294
7.502892835863709,1.0907266570736074,29.553082776271097,2.1875232680582464
7.724487475515433,1.1034818964164486,29.778328462618187,2.188284116965529
7.946269791168133,1.1157777960751356,29.994953876736567,2.1890327801357543
8.166604125017532,1.1359017104629365,30.187685980113685,2.2051828692213973
8.378530325958481,1.1541148268028691,30.35135270732539,2.2174809254429477
8.601868946486777,1.163014746719234,30.5070376744781,2.2115151132154107
8.817579015936305,1.179369297458419,30.597237956127465,2.218873183983983
9.034548429580425,1.1961031259162924,30.70523207567256,2.226394676532332
9.256353008300927,1.2095280298848552,30.826005260090398,2.2281647644585423
9.484461216985805,1.2306330751239805,30.883810748917917,2.2432176185738983
9.709257211902212,1.2379875830178588,30.930386939632886,2.231754625465137
9.935222198801382,1.2550548227044356,30.955151138176902,2.2378313313566633
10.16448249509356,1.2723574083224207,30.965342481925266,2.2434891550855194
10.383563584739482,1.288094526100587,30.952399464845264,2.24621420276786
10.60996752946672,1.296676327080379,30.94269227106534,2.236536493891462
10.833766175578228,1.3125760248431502,30.93048295011564,2.239621513017567
11.04895823141214,1.3271425189294028,30.920768466415705,2.241056101698034
11.275285649394355,1.335642377423029,30.8697238241798,2.2319351572998
11.496292195232426,1.3467578947124514,30.795053821587516,2.2261828955485727
11.713117592852194,1.3678572269387808,30.729208690346766,2.2369643224347056
11.935145658135244,1.3812492340870763,30.632281261956834,2.2349372744597646
12.151389056584177,1.3860765852388834,30.52602685405902,2.2185233810518548
12.386804307785127,1.4001363330619705,30.412428885364584,2.2165138387732446
12.591774295872058,1.40711771293862,30.23441499470244,2.2025697833387174
12.816997592657248,1.420984533704914,30.06259527074639,2.199131206984488
13.038198987989041,1.4444768056997903,29.91631850395311,2.2101817991399986
13.262122866372557,1.457599094604125,29.783785012905962,2.205975090283067
13.47712198512961,1.46769362381198,29.60815314714628,2.197180043405006
13.690223153548125,1.4769801744573097,29.394569320287314,2.186577623659579
13.900790225250134,1.4914260678541362,29.221383049305402,2.183621848719136
14.130491918667397,1.4966771921118374,28.99756984496535,2.166865801654817
14.353983264060144,1.5137850443845522,28.775670217050223,2.166008244694392
14.57791257979976,1.526456046054073,28.532094223610414,2.1584908635064015
14.795974245325839,1.5369732282849282,28.298066920356096,2.1478320860208484
15.00264398085503,1.5498008091767554,28.043782247170558,2.140938100798128
15.211972668581213,1.5567198724663962,27.792098477099547,2.1259591486735636
15.440663192335045,1.5789290167678671,27.559847590271485,2.1317407802838635
15.668779014533502,1.5816814426104353,27.303418343120526,2.1103243714124544
15.890376702590833,1.5852646982790204,27.013137862835123,2.0896820794256112
16.102174249679504,1.6065498641004057,26.751439999056846,2.0926258741431023
16.31648474219372,1.614361825156752,26.454685446723218,2.0779731473995433
16.531243143158967,1.6321541461113005,26.166742951307345,2.0756774128255278
16.742238534961448,1.651214461838115,25.861390643955733,2.074710172463672
16.957492101776275,1.6475982030210041,25.55728542260401,2.0448982990557987
17.15681010456824,1.655286761306023,25.251144363749816,2.029778391445175
17.369288727314967,1.6787379780562575,24.962066975875164,2.03419250802438
17.587471864177974,1.6748899511504691,24.620890479788564,2.0044563639121105
17.803670689757265,1.6795488988933165,24.311948545947104,1.9846071787453299
18.012582849848034,1.6968189295793323,24.01191779650535,1.9805239162415516
18.234059933239983,1.708552843744008,23.69812017629895,1.9698503485162062
18.43482071950747,1.7191190415826096,23.36419976749438,1.9571775286638935
18.638405059012126,1.721656572011585,23.041858012656036,1.9356384300575933
18.830552397459144,1.7295526333344107,22.73666885794854,1.9209880178938115
19.047734939086922,1.7425924502777799,22.4177777052637,1.9119483520331997
19.268490768467696,1.7604663197706245,22.097868499056393,1.907070688502268
19.461410681143075,1.765909346383935,21.77701067125094,1.8888266694973763
19.681916521779513,1.7819173655347424,21.440290955018376,1.8818187505741883
19.861409745418047,1.769891457450546,21.11923049666944,1.8452237719358064
20.034333607003173,1.7948144697586175,20.772098610937572,1.8483022274825431
20.231458437943292,1.8041315137945089,20.433196992300726,1.8342532910336362
20.44456524103809,1.808798464029212,20.1002845294811,1.8148492692443703
20.642884407041528,1.8130435309032673,19.78187939674192,1.7953524400560161
20.832584105096096,1.8255139618680927,19.45713993959788,1.7846249863873072
20.997264734901833,1.8467854804016541,19.151582556625005,1.7831068390312734
21.18498794176531,1.845610827032344,18.820305814418305,1.7598289522456305
21.3619489863925,1.853104142016902,18.496228411277688,1.7442993864510834
21.537871832700354,1.8611550450937093,18.174058738299376,1.729525457749937
21.711351442153887,1.8667499293043277,17.835551708007895,1.712147735754033
21.88172523759191,1.867258692852724,17.506434375528734,1.6900489121603517
22.066057742625553,1.871326808627484,17.190225854976898,1.6713990660741622
22.236887062652418,1.8796754881538715,16.878956217659443,1.6569173828645547
22.404517677439376,1.896114896852112,16.56678878305299,1.6497210998258285
22.575472076176176,1.9071317532005292,16.26258158856421,1.6377685974256473
22.73663070263454,1.918790823135401,15.956091047618553,1.6263940056984592
22.907990636639177,1.9176990846303477,15.64400706865265,1.6039990540031508
23.07920157023066,1.919697402460735,15.346197311862538,1.5842511770281593
23.261194145963707,1.9386390369638689,15.042678931388066,1.5783494764732098
23.407429051562406,1.9322178289387981,14.7387963178107,1.5517294178274499
23.576458397277587,1.9495496773882885,14.449308413785309,1.544833482557153
23.726725602210163,1.9503770412795831,14.171306780444954,1.5251439134959572
23.902788873725726,1.961473160113198,13.912243853468883,1.5140767937541482
24.08269244904372,1.96433035017204,13.636739715192459,1.4962930953201634
24.264293131078777,1.9765237280077712,13.366287942903162,1.4851563677084927
24.429448152245275,1.982934273675081,13.114244160744247,1.4701402974524456
24.5644525353266,1.981184797873852,12.862091343792423,1.4500888687268156
24.722335592892286,2.00162115679347,12.631252742899122,1.4470258264524416
24.867812388454894,2.005607080099439,12.394755335521046,1.4321384054070974
25.018221294452964,1.995265672089223,12.158541104755786,1.4070151231329147
25.155834050225486,2.0189950995069452,11.934622663723031,1.4063649861358465
25.325688271610602,2.011790893981899,11.718299869954496,1.3842250974578745
25.44726991724234,2.0276188558724972,11.485821164985843,1.3778742672871571
25.59380540251767,2.0189373688030825,11.2804219897349,1.3552824282534333
25.75238313598874,2.0334816332048145,11.071818359873381,1.348640356327473
25.886567673127683,2.0474186533630414,10.882966237903132,1.3418169122062493
26.052256721607932,2.045125078896415,10.684659596303812,1.3246203566314705
26.193085793999668,2.060843324894735,10.497832017245244,1.3190063535808612
26.367493146726993,2.064456709621933,10.323627968544226,1.305954252128376
26.52477259852951,2.066256683259211,10.147432688393883,1.291952386913645
26.667271755655033,2.0710613441882466,9.983690465097219,1.280426391652985
26.806651558404152,2.0777050979265166,9.83037002724486,1.2708772531046921
26.940650454469864,2.0826497853948043,9.675303430203554,1.2606655986848085
27.093994190626965,2.0843991734543468,9.528648915978039,1.248585880203783
27.213150745668454,2.0954985036405875,9.384162978936132,1.2424374880001658
27.351185160803556,2.0996866495907898,9.258434738750239,1.2329489995736302
27.470759313376494,2.1028485909531494,9.134402277489215,1.2235475135383311
27.603459043636743,2.108237359971756,9.020828523535624,1.2158489325947512
27.715234791222183,2.1151132295018424,8.918600847883793,1.209687960070226
27.858987315190177,2.117928499128069,8.823387614752031,1.2017598967718244
28.000895256191974,2.126038692952313,8.736097755159523,1.197016881156929
28.15459372229577,2.1247288269752502,8.661367972491082,1.187440452725671
28.275322041213556,2.136499876465524,8.59625865938618,1.18614270243488
28.406724280740015,2.1470577743630703,8.530569924398069,1.1846797466407253
28.519593963710832,2.1413734193490352,8.473917332444461,1.1746274351423796
28.609048820989763,2.133484150595111,8.421428576034042,1.1642992890657138
28.723473425841576,2.148633156521634,8.371643697651294,1.1669262489439407
28.830873030915317,2.1452909447165176,8.332052252087692,1.159624383277611
28.926721185464512,2.1680235746231786,8.303818288879311,1.167314737275826
29.053224739116935,2.1688644446330825,8.28550088317,1.1636610780616867
29.195962763167532,2.15622664646686,8.273750220222022,1.1530833864886332
29.30972905898288,2.1763636494941774,8.272005780425157,1.1606938679193979
