$D^a [mM]$,$D^a [mM]$,$I_{islet}^a\ [pg/islet]$,$I_{islet}^a\ [pg/islet]$
0.5187227758228581,0.2353989740050413,3.0384353894075495,0.47135552486638904
0.5682103270722164,0.28256991208429927,4.074603999878517,0.6690856671610603
0.6390863561676412,0.3054781717440365,5.103932135940867,0.8083379973522875
0.7264814912781082,0.3215890133475262,6.128510617490828,0.9035042901361012
0.8276917191282868,0.34535483644945547,7.13469491016997,0.9997098768829701
0.9405400732354814,0.36799852759154394,8.126573888675772,1.0782258027615437
1.0626282826293696,0.3914875328865891,9.096531808313808,1.1490670318167189
1.1922775033103397,0.41694130681848685,10.052563514309618,1.218791016565087
1.3299651599915616,0.4401332188442221,10.988372753363299,1.276751495895003
1.4746365478062986,0.4657643734095208,11.908689838833352,1.3376375878011428
1.6244691396029673,0.489298043698535,12.819597968972307,1.3896447773537521
1.7807656515823163,0.5143991426985433,13.712098002890672,1.443961926574297
1.942077292271952,0.5359459993327953,14.566853606329438,1.485776276103027
2.1066233601971365,0.5630243118567273,15.406732209643407,1.5409854200117414
2.2750796075397686,0.5871140267032146,16.22309080688559,1.5866914115511082
2.4496437023268505,0.6067433565468486,17.011230535912972,1.6186020105242276
2.6267292695336817,0.631719653036322,17.79430411286188,1.663635098013986
2.8085767500652654,0.6541390499649877,18.559515937500567,1.7012774352929187
2.9888303021530045,0.6765250451899607,19.291605862094322,1.7381528726217603
3.1721087502037153,0.6936028771714311,20.00724344817199,1.7611333383291843
3.358925021212261,0.7174548221025053,20.67365748676074,1.8002653743274528
3.547512740392806,0.7370400153061658,21.336544041925745,1.8274296654067115
3.741771958654104,0.7624788568299665,21.980891458422345,1.868537369803035
3.937243283163415,0.7837713654038849,22.595488957104187,1.8981851702825858
4.133622562619039,0.7974198932714733,23.20685818549591,1.9091813754586258
4.335834794248492,0.8191879843037866,23.789650717797944,1.9393883285640456
4.535786085363953,0.8368603857306076,24.356739879255624,1.9591482526476856
4.7413568398288675,0.8582493054819388,24.890989067369738,1.987175643415132
4.940900612098785,0.8767248818089624,25.387670721367055,2.0075057374249634
5.150936155874124,0.9005219777652743,25.884455320526808,2.0395889808235115
5.363046209299926,0.9131785006429796,26.358994486547235,2.045359388398205
5.565910020189906,0.931709412268071,26.79015044193054,2.0644464637288364
5.779125211031472,0.9478563526333362,27.209561706329,2.0777957955248993
5.9906445714193834,0.9687601598563418,27.607164724094545,2.1006425849000703
6.207041787001577,0.9874574391920062,28.00188032209466,2.1183230678578036
6.4222145557840475,1.0019456464715237,28.33159816784515,2.126135052062844
6.630009429726196,1.0154506509054841,28.681312753561823,2.1319426511039588
6.844032222196925,1.037766767582071,28.97814357578227,2.1566528682596315
7.0650175536225746,1.0566452465945906,29.234278160836723,2.17190096404677
7.279887116557326,1.069001313112113,29.492148732450026,2.173011701839659
7.497026252197273,1.0790957102395353,29.730221621367946,2.1701473987296502
7.719230401489062,1.1046558249448408,29.99166886241322,2.198414768860159
7.941066930373871,1.117618992216706,30.181547618317676,2.2007426255112996
8.16033357168795,1.133611610279562,30.374762293699245,2.208402602018142
8.38331625383268,1.1478241551120671,30.549252724899624,2.2126605114125986
8.606377611660397,1.163179820063337,30.692766430995423,2.2184711814703673
8.824916600949733,1.182971286309434,30.806870524466774,2.2320811557029114
9.052158718244913,1.1988492265798123,30.920619887353322,2.237837945989364
9.283724181402915,1.2144458131518758,31.01318575147028,2.2422308672273235
9.505597194795232,1.2277400029321015,31.085577214030465,2.2420936083129472
9.730857217089646,1.2434207167597247,31.119512567663524,2.246192088528952
9.946016784056711,1.252439758560333,31.117415713549367,2.2376663271783386
10.165492021969445,1.2729942292381518,31.101060552959417,2.2493870261425983
10.379819765211328,1.2895468441685622,31.124381674757092,2.254190052556215
10.602243181148692,1.2971025198558843,31.121433184826962,2.2439657049974393
10.839370483336037,1.3168438089118302,31.110811422974585,2.253635443970224
11.068174380320025,1.3266304285641117,31.082216972830118,2.245456191049244
11.302603184429726,1.3447010114402196,31.04524154302052,2.2511374936521804
11.53249735144124,1.3533369594708158,30.9708786030732,2.240452724246121
11.75346186903442,1.3621215496255819,30.875750336592304,2.2299105234436047
11.977193091781519,1.3786098955774753,30.761187644490487,2.231995425307042
12.20191170547841,1.39438131599163,30.686214329088518,2.2328540634536123
12.427963693433297,1.409719822352649,30.53719188122191,2.23276587729294
12.65357421532721,1.4217951791657306,30.421812334040986,2.2266662222967604
12.873455958758898,1.4368034876226612,30.28569384366612,2.2256791337731716
13.075794540029893,1.4485817100422071,30.128099219908123,2.2200667473530062
13.29839990386137,1.4476154559476762,29.945554612304676,2.1945865514866476
13.525362296637232,1.4710944162501167,29.778331779972834,2.205293584716261
13.753584374577175,1.4834278500297882,29.55658459740536,2.198083331069004
13.958306057304174,1.495591986646079,29.298304294226284,2.189847850165448
14.170688503963465,1.5153076793033415,29.04524242672236,2.1926402627360386
14.376112956833218,1.5157056669883477,28.8572895621551,2.168390648313171
14.588614592765174,1.5233609414153744,28.607337478553294,2.155444813636665
14.805963549739747,1.5467333587309988,28.355536594616765,2.1632915951964846
15.009887480831043,1.547925871015831,28.100377119617765,2.1398926340730795
15.228595993554856,1.5613482704238324,27.860153729279766,2.1338974648947575
15.448741800969708,1.5772967210688411,27.58866863788299,2.130566362897765
15.6685183226044,1.571032055164843,27.32602557297078,2.096835463534686
15.886311236404174,1.5915436875999427,27.043131170132792,2.099129726313877
16.099933251351825,1.6082976242693983,26.79738933396771,2.0963825937579608
16.323087273764013,1.607677135701922,26.53888727590561,2.0715478193464523
16.521441383887176,1.6300879547398404,26.236084296051754,2.076096109602341
16.728445824625634,1.6271184790479907,25.93371192105758,2.0476909499871994
16.949714636302655,1.6543231102732794,25.62221759578627,2.0568471404877924
17.174114393835627,1.651948795204949,25.346647583762167,2.0286242133741426
17.393923827768443,1.6705599604723735,25.02991669685653,2.0265403797689303
17.595690163675552,1.6788513431815986,24.70786690767196,2.011416013610714
17.80219748993428,1.703026353664953,24.389335736993473,2.0154899091356304
18.000313876131898,1.6996202551640662,24.071324117244565,1.986848314129948
18.20906558936248,1.7075271458959769,23.78620903706445,1.9723782519929156
18.408248786287434,1.7124891740068542,23.48156187285405,1.9549131907933963
18.602956816102225,1.71698567103565,23.14127535950403,1.9364240436303273
18.789297399388065,1.732987044608484,22.792920885353936,1.9302612029615978
18.982381313947695,1.7448799465893707,22.454429231758333,1.9192212512469533
19.183893858460895,1.7473429290936722,22.113131582089913,1.8975748748309766
19.385585801723384,1.7662689934438764,21.773823924782743,1.8936053909577033
19.57087362210714,1.772319672930271,21.43263306909712,1.875841164502471
19.7640879785896,1.7863162048776844,21.093176359708224,1.8667063628767437
19.95242221136849,1.7903127461573278,20.743898964034575,1.8467443611967083
20.14051087494384,1.7919320450321605,20.407569857583763,1.8245482287807424
20.34118671637789,1.7996209327012023,20.076132318662527,1.8088119068910322
20.53670752716676,1.810938143594776,19.749527451099834,1.7965988762751397
20.716828265176897,1.8193645291381981,19.40757379741002,1.7815955805014716
20.89951229736639,1.826624871865495,19.085301231006444,1.7656533111664905
21.095249144141878,1.8437557954909602,18.74809159453668,1.7591003637545244
21.28813134621545,1.8458353869609405,18.39256183286197,1.7370445104460017
21.47893591684418,1.8668000405781402,18.05770865596441,1.7326453663789811
21.66781294313877,1.8713809095771423,17.74019092971191,1.7134820581236567
21.844273262081774,1.8608304804383429,17.401707118199226,1.681022723119108
22.03243632929612,1.8740689866952303,17.08901407748856,1.6703451447742523
22.215295454357086,1.8868657427230648,16.761583506277006,1.6591079327923943
22.39565409270852,1.8995673977776995,16.460744167954303,1.6479269462462467
22.55148531891242,1.9147377777358634,16.152048335930996,1.6394515295251155
22.724405115852534,1.911765496342689,15.84435569693805,1.6154703810187632
22.888908615888496,1.9118269079841461,15.534512234428218,1.5940864396116028
23.054025697847678,1.9288412581554752,15.241291650436748,1.587078367034624
23.20179099534969,1.9267772463389847,14.932410887742167,1.5643754993428243
23.355091407753342,1.930329178063433,14.653038051442731,1.546858585826118
23.507758984099002,1.9345381516432143,14.35041500868533,1.52995128885031
23.660954642385466,1.948633330043315,14.067415081249337,1.5206154160696357
23.832258574414922,1.967298119396889,13.791788818761374,1.514883462028745
23.979819948318575,1.9772312003771457,13.522346800816821,1.50243213276982
24.133306087259403,1.96954311950243,13.252054363767673,1.4770287786744198
24.284638534707845,1.974252184558741,12.996833164823514,1.4613693181326104
24.438843201611395,1.9834689837081532,12.742447922008065,1.4493371322861077
24.592513965309088,1.9965784151498969,12.497240777485215,1.440101770227332
24.74675071213537,1.9838708301835417,12.255188799009643,1.4125488569120392
24.903977731394207,1.9971527939331541,12.015380494248356,1.403805737161926
24.993714907097814,1.9935641027477191,11.772903981629703,1.3837424159501717
25.158416415761227,2.0124289596638585,11.529121204698525,1.3791620148300503
25.298291224975532,2.018223875954225,11.314045020796376,1.3652534403313077
25.462842217475984,2.0129100423179835,11.098333560160224,1.3445830450877492
25.608577981796167,2.0183596817108342,10.892702751963546,1.3314751759885504
25.741163775314845,2.0227986228920503,10.680284872018271,1.3180375376070268
25.871773291111833,2.0371555575129716,10.487244740672962,1.3114631628464257
25.98480432515958,2.056692295510394,10.296714611619354,1.3087582827921131
26.137498630785654,2.053114452014171,10.104546839854338,1.2911588759922643
26.28800019148006,2.0633547810902892,9.912462386658753,1.281732595478459
26.428291729667038,2.0552256149929553,9.737786840900883,1.2613509068683295
26.53958507802447,2.061234855202694,9.58189317092167,1.2511334104818266
26.670928324679416,2.069544984154788,9.41521250353763,1.242755612115548
26.853456009265642,2.0913495614150137,9.262870693491633,1.2417691758160811
26.97732570859768,2.0824235407464995,9.117566528977685,1.222921832532956
27.133259079124997,2.0884491564880943,8.970716539675777,1.2134583167106443
27.265691847169382,2.098798322362402,8.842903279886114,1.2068780933824965
27.369750265346788,2.0926072758916243,8.725144529323373,1.1921238503432183
27.475853216051075,2.1024356459566444,8.609868631653326,1.1873888094830316
27.593804290951077,2.109047057911441,8.499253636488532,1.180896383610309
27.738821143648725,2.121684138420197,8.402493659081914,1.1778851259832432
27.83324761002012,2.112032768732178,8.29797530676163,1.1628790778808427
27.958040960667848,2.1188945184266266,8.208723908994582,1.15754261946603
28.08269957121877,2.1242593355561787,8.124614302892224,1.1517079206099932
28.200706773296773,2.131494653393586,8.049171203383649,1.1473278484839018
28.331290886508015,2.123724912365047,7.982385812018332,1.1354971799773963
28.44537364504776,2.144044327614543,7.9225845983117456,1.139306349507346
28.61037634266224,2.140990508532252,7.871931832028037,1.1308389168118278
28.70439391276164,2.1537477823932716,7.825641253379558,1.1313367297457535
28.812057056286218,2.158416151089888,7.793338998975252,1.1286550291027453
28.901314736595236,2.162531329081126,7.776608304517856,1.1268405051883192
28.995842165708456,2.1681399852579393,7.760762748684579,1.126608691210574
