$D^a [mM]$,$D^a [mM]$,$I_{islet}^a\ [pg/islet]$,$I_{islet}^a\ [pg/islet]$
0.5192699688834549,0.08721125433713771,3.0390460348970834,0.17972473122013985
0.5690403053962383,0.09147039867344924,4.074607576448019,0.219102543274068
0.6400126566924563,0.09638221146008895,5.102497732583293,0.2555607659204108
0.7280172040563808,0.1028815436518189,6.118372736696672,0.28888313079620476
0.8292308470286618,0.10913538954885672,7.123253860810819,0.31539977544965125
0.9419861030927567,0.11638823491295555,8.118354685883643,0.34049446773051384
1.0649307115522468,0.12287258513339636,9.108352484250252,0.3602913280417277
1.1954575817101547,0.13119979219445327,10.068523744612838,0.383317324602796
1.3341202660053424,0.14020225413457393,11.013719541498949,0.40654213916369897
1.4782624870599264,0.14789434101472976,11.946129360489497,0.42469370375959675
1.6280619322937564,0.15579821744391917,12.8559519167234,0.4426326704429139
1.7844610868264985,0.16330554054528026,13.738422081542904,0.4584940770862997
1.945106808305083,0.169144576428124,14.605385698689062,0.4690000005954867
2.111403746070695,0.17794035331742716,15.448734645034584,0.48723511235910155
2.281943562420199,0.1846269905416458,16.259840637646615,0.4989431540644915
2.453935966193908,0.19218651703120335,17.055747409939517,0.5127173774929353
2.6302460000527477,0.19765005663517032,17.830529173743425,0.5207045995328211
2.8115446741163987,0.20698311169091807,18.576766141959162,0.5384493462883995
2.9947387716108866,0.21415164094146563,19.3055286598989,0.5500993009385301
3.184417965725702,0.22182353050570772,20.018095690136903,0.5627103213791523
3.3725301603541,0.22729267936057385,20.693789517005367,0.569439666244156
3.56567965926737,0.2345407107107798,21.342580327681112,0.5804493286682876
3.763269653105137,0.24251195496530714,21.99381153326895,0.5928808281023178
3.960565172419342,0.24809528271317602,22.604291586926152,0.5992757105318408
4.1585270062197806,0.25448516499164797,23.18215061969583,0.6074664112320429
4.361529858754185,0.2582461705324381,23.74914765060203,0.6092038827563019
4.559015373562698,0.26566240896311377,24.295350721207406,0.6196139437604087
4.760312113534861,0.2728400641741414,24.81721542030234,0.6293903478319205
4.970704914339317,0.27902323919139665,25.342968656422318,0.6365858269054249
5.182033753404299,0.2852062866029692,25.804626699086434,0.6433289696513761
5.389670364175814,0.2903383413506432,26.27708507604826,0.6475554513201168
5.592769800233893,0.2949673696890783,26.698630644593198,0.6508906096005936
5.806585673813524,0.30118268935424874,27.10405649565522,0.6574417800415058
6.026242864864823,0.3072696302169104,27.502593516723014,0.6632676261371588
6.240580569137742,0.31342490630110803,27.854753211280325,0.6690040995910332
6.453261512461116,0.3164132017907973,28.211225981992943,0.6680536921851274
6.675150635013842,0.32191063819742954,28.51835520974237,0.6723289198470048
6.895245194428553,0.3276401400643984,28.77926354233163,0.6764930209713822
7.11175835538062,0.3330095061142852,29.028946618748826,0.6797616842977405
7.327943798280436,0.33982369165229526,29.29954842942919,0.6861674995143399
7.5353802246151,0.3467739312873059,29.55478330737605,0.693121957213354
7.760901603237729,0.35008405040648777,29.78893941000046,0.692643550452468
7.978878456650754,0.35429113922795025,30.009538904704335,0.6936503403989751
8.19713287056865,0.35907332896578814,30.179762641311672,0.6957637627043115
8.42362854143973,0.3672935749328269,30.32806492275786,0.7040541221098956
8.640917155738155,0.37137537422555666,30.495560828910364,0.7042780741381124
8.863545947912284,0.3766179197220984,30.602808051476853,0.7067915801343843
9.08492686635578,0.3796617228477841,30.730259449092905,0.7049727841999712
9.31046222013328,0.3865190227714051,30.81204628173098,0.7101744230105815
9.531595174194228,0.39098751895850464,30.875143552840207,0.7106345582613891
9.758363372438154,0.39211792087356157,30.92446451670679,0.7050112855053358
9.962250027640199,0.39629196106022563,30.958814308044058,0.7050982230267705
10.180674595132361,0.40173622772222106,30.982309309623204,0.7075875861367776
10.397933989441968,0.4073961546520715,30.990248952781826,0.7101226619212846
10.610196434589827,0.4116562395979954,30.99724317938137,0.7102078174149493
10.835585410125347,0.4153243146693721,30.962435529113236,0.7090941523801173
11.064574733800185,0.4182777754262269,30.900914977330423,0.7062469626128547
11.281475804464298,0.42483540380959756,30.868090661893646,0.7095173871860018
11.48913780833759,0.4255773734706641,30.807685524199126,0.7034467585956198
11.712787191505132,0.43287663140129534,30.700891556992136,0.7079887219869371
11.924887512195816,0.4365553625709169,30.614554060268883,0.7062486310643068
12.142023563719933,0.439661768189242,30.478107031759325,0.7036610334224049
12.362805686506077,0.44393195954667614,30.36055721798164,0.7026807487191997
12.574348731821797,0.4461496802412646,30.253439686917346,0.6986358015659248
12.787453819468713,0.4499876147601357,30.077917256158738,0.6971771504281313
13.009286301806855,0.4557586766627815,29.913521237685515,0.6982328796310838
13.227593307621229,0.46071044579875803,29.75633733322103,0.6979704943871059
13.45266736378409,0.4613251455344156,29.567509549986518,0.6910604867777722
13.670468675045612,0.4663132440178523,29.35950244958131,0.6905299898729398
13.901127849224254,0.4709488934838279,29.129979911772736,0.6892020498950286
14.12440899791403,0.47529308182031405,28.9339319875124,0.6873429296002909
14.339333444626858,0.47801230113886345,28.726828301932503,0.6834766926076307
14.545727301106114,0.4815095348412137,28.543748715262954,0.6810473063075422
14.760259603064323,0.48574855096147324,28.30398440524446,0.6796246959875124
14.970112616945729,0.4900368513814158,28.059699816851662,0.6778719377074001
15.196792977101117,0.4884016493065573,27.823209543809217,0.6678126027861623
15.404245503598352,0.49624501384528563,27.562998496064967,0.6707698681444012
15.641863601924193,0.49994177396083955,27.277910889608865,0.6676749457217895
15.85980364124251,0.5031841295831597,26.97041413596671,0.6635796714477651
16.0812142141913,0.5045469563451814,26.670344587404006,0.6570567831221936
16.294959776866477,0.5089109390255953,26.354625321211095,0.6544968922000369
16.5067385987906,0.5142954873491743,26.078453943721012,0.6533701978104809
16.706113173708168,0.5167172984500021,25.78082540540027,0.6487391891755854
16.90575281084634,0.5188297155458242,25.454906646609558,0.6436359519486489
17.094489733332033,0.5250141910901658,25.120144897533002,0.6434370937615923
17.310235408210527,0.5270245111373021,24.848417498735078,0.6381833729262107
17.517150136809214,0.530268246099153,24.54232143766529,0.6345170912014986
17.71270687622606,0.5305193536104619,24.194087349242057,0.6270355024485458
17.903358920641836,0.5358677648235599,23.8489050230353,0.6254636212613236
18.112427630149128,0.5403393296628984,23.541357933350373,0.6228621101422036
18.326390127811436,0.5423545717960051,23.217993004362892,0.6174021960925087
18.52217231604541,0.5504955938981346,22.874674657561947,0.6187850771937627
18.730563215566217,0.547562399418664,22.514458059937986,0.6074617389122228
18.917661118643462,0.5528275516298821,22.171398382807382,0.6053505244495482
19.110503465710348,0.552314658377185,21.84794171448293,0.5971871203988742
19.314455208401576,0.5542622459559705,21.498956249664275,0.5916801697951826
19.518367200273342,0.5582374841007022,21.17116661091402,0.588174193408688
19.7363844887422,0.5602627393314287,20.847021572251982,0.5826381440552155
19.932216739589162,0.563603358300922,20.511654744072747,0.578440705777095
20.13294565328622,0.5684692542582276,20.196267286625368,0.5759430031452035
20.317111484230054,0.5692357935350161,19.8655073208807,0.5693790596139698
20.507318622576367,0.5750071739646112,19.52131732218479,0.5677299275642264
20.702795341363483,0.5765968588915291,19.182785581471375,0.5617040647555033
20.87124409081641,0.5803661205422641,18.850948274326402,0.5579752394878754
21.062364447431655,0.5794584154009936,18.52961773619519,0.5499131233455689
21.237668680054217,0.5847995797168049,18.173880313375342,0.5476243337406641
21.409588654095632,0.5863272264481232,17.849155599420367,0.5417109569958146
21.60212047191612,0.5896135171036583,17.526041680362862,0.5375547838749549
21.78304677558775,0.5888340198891489,17.192770919281124,0.5295607400380488
21.94505055921842,0.5963607531446941,16.87536285991572,0.529197571486226
22.124640131625778,0.5958150386762187,16.552811478338935,0.5216739512057206
22.290634365663095,0.5982183094235335,16.223621651706356,0.5166727819219342
22.475222955031974,0.6020285492832439,15.90886687573058,0.5128436892266344
22.67273962867871,0.6036225913561573,15.602709326922742,0.5070585073548121
22.848132202238904,0.6068292242719888,15.287039173774897,0.502646070699727
22.99492760168191,0.6076549216114759,14.991001412361987,0.4964955549374646
23.148064011083033,0.6126288129101137,14.685867573397708,0.4939719218562399
23.337395656725953,0.6126719480464498,14.401051704240698,0.48728367671861467
23.507715285871075,0.6149372805869942,14.119176501678755,0.4824362604438291
23.673421876748755,0.6158215314793875,13.843995640920681,0.47666506748990217
23.802769303443327,0.6194283142151595,13.567543712747282,0.47320625744632916
23.96422096300146,0.6211268671357075,13.295439171063336,0.46831353909891965
24.12012450449034,0.6218043154712872,13.000421919545216,0.46240054496865957
24.284572892229495,0.6259041739636011,12.729164478676234,0.45892049565300796
24.436877771380036,0.6258009251762153,12.464829822206626,0.452527848413248
24.576150774364066,0.6280000300146353,12.194431616432887,0.4479429849090517
24.73387602054201,0.6324180213325948,11.941812787759831,0.4449477082211468
24.87984708635006,0.6313319049863719,11.674898733297045,0.43802831725674607
25.031657927478744,0.6357091152853028,11.432382641378318,0.4350046006820331
25.19163648795752,0.6406110388134543,11.195418368920873,0.43243003691755244
25.324378793897697,0.635376262928432,10.964482935861675,0.42315436335124307
25.450202885262726,0.6393044247557289,10.749713600028791,0.42038522438093107
25.59769823448548,0.6426433567426472,10.534259178569037,0.41724919377748204
25.705202908677308,0.6387477580890945,10.32570289703076,0.40953053028920877
25.830712677641827,0.6434530825722806,10.116829700211131,0.4074930217089236
25.966073452073168,0.6497776319668138,9.919536873559046,0.4063753695216361
26.095682726800003,0.6478231114686245,9.731932985881823,0.40016885294616195
26.244261783854903,0.6465528936858105,9.537568350886337,0.39445701292485297
26.37383079474484,0.6520812429579045,9.358870526971467,0.3929245928971891
26.498986776134583,0.6511608161873852,9.174828147429839,0.38763806008964047
26.633919120654635,0.6539901046018731,9.003758774716836,0.38463440148528233
26.788033289582934,0.6556215398096831,8.841810521928085,0.3810064445736074
26.913466382942957,0.655438018163746,8.678262530728393,0.37641517153632165
27.057780029006246,0.6576855936333422,8.528359550513406,0.3733703584522408
27.194899088348688,0.6606784967094087,8.390163704314299,0.37090200076492424
27.32125867447858,0.6663333225492438,8.25569107585257,0.3701166833451572
27.431567527840564,0.6693257492136765,8.123831782482316,0.36798388928234604
27.57049634388185,0.6710032614812975,8.007307390929729,0.3652386238977678
27.68679505493405,0.6641068604620055,7.896352686352616,0.3580366193190803
27.782185829744453,0.6711720304421519,7.795581336474817,0.3587088490514068
27.862666611524304,0.6682871694247282,7.69859953200361,0.3542887970218968
27.995719230854768,0.6710025112880963,7.604793196039608,0.35286817796423886
28.09611639358981,0.6675875478423897,7.506722233529837,0.34815051563772975
28.205885553223695,0.6741788165033992,7.430335839366867,0.3488507540025664
28.31359012431294,0.6727030112285084,7.356904105459566,0.34561980143903204
28.452797187019105,0.672359211098704,7.296600262099361,0.34309419395434065
28.556632661211303,0.6803627055696105,7.232623751431039,0.34493470535603465
28.655917979339613,0.6779131171911934,7.184174091834915,0.34169601454312265
28.787609562026535,0.681862139751381,7.144822999769012,0.34190442927231307
28.886629812557924,0.6846082310044759,7.113322759581615,0.3417082254827287
