$D^a [mM]$,$D^a [mM]$,$I_{islet}^a\ [pg/islet]$,$I_{islet}^a\ [pg/islet]$
0.519348264688022,0.031016395248453406,3.0379041291682864,0.06783466535699954
0.5685557902222846,0.029593407751926405,4.076757827015957,0.07208851099070016
0.639408069208006,0.03053291075671176,5.105256797880898,0.08135732326817904
0.7276193974841132,0.03230330643164814,6.12425648023041,0.09084951899950675
0.8292031362810403,0.03434058710471411,7.1314852726815765,0.09933260010794533
0.9422848738019944,0.03703912426824207,8.12140301528849,0.10840550954864586
1.064387590022346,0.039291837938820566,9.102345890570428,0.11522334223839532
1.1956022458618618,0.041863887574555426,10.063805277282183,0.12229277326491066
1.334392904377998,0.04413914040461605,11.002348986664549,0.12793025253504708
1.4789643798363485,0.04668870256106725,11.914625643791263,0.13394840814766004
1.6317049059714244,0.04910759650681325,12.819424996151701,0.13925274605874988
1.7863714176316519,0.05166069966079062,13.703058301393002,0.1447288742946799
1.9463042534903199,0.05403835960559181,14.555503895637276,0.14955355658147382
2.1127319568994753,0.05615319541329579,15.401574738759876,0.15344144485982836
2.2826537917126313,0.05859910852485795,16.2361736652426,0.15812551559485838
2.456813710220077,0.061011320041123245,17.026543581770884,0.1625704837656634
2.632265277711547,0.06309612957208517,17.794798924337442,0.16599679857290703
2.8116991741533113,0.06536286636112283,18.547059324872595,0.1698382254453819
2.9957234255302736,0.06759415004791382,19.268382022892624,0.17345360510569444
3.182955035746483,0.070004124592832,19.981972134276706,0.17741666421226807
3.370800455134643,0.07203274119186605,20.667645692551655,0.18036283712180684
3.562629975653365,0.07390149994297285,21.31020251800975,0.18282076777817155
3.7574403238502403,0.07670404039021815,21.93316617134694,0.18744356176132837
3.952506259907731,0.07823553721399495,22.53998109369624,0.18887747667264007
4.153554470866341,0.08021812695581812,23.146375380464,0.1914240706233251
4.35110361571581,0.08222956260799136,23.712380834433507,0.1939966763770402
4.547903538390153,0.08384318641193479,24.272724474890374,0.19563996666231068
4.7488551033676805,0.086477009678438,24.789624611257175,0.1996273388262121
4.952672715030638,0.087997091952485,25.305269859486266,0.20093079278604203
5.157511521697657,0.09020837149049346,25.790638764252556,0.2037751241429208
5.365983289200701,0.09149021214168104,26.224880318961493,0.20439157184461554
5.5789524074678685,0.0930313004533589,26.633844430934694,0.20545859174058734
5.792650780217039,0.09496115072202528,27.040353876565014,0.20732106522786115
6.003589835595946,0.09682941109959997,27.41459410603956,0.2090437810634039
6.2177651919695975,0.09964756787522752,27.762306457183517,0.21275525979500395
6.425061963377789,0.10028370133983476,28.133886861569717,0.21182435037632838
6.633182564920048,0.10153166323086006,28.463799144703273,0.2123180682607095
6.839900163097717,0.10426832281373563,28.7630856244087,0.21586227162685728
7.0585600017084795,0.10513172188827076,29.054489174284118,0.21539810737795992
7.279072547519624,0.1066232115861424,29.294070388087153,0.2160956400635965
7.494744638938291,0.1084073842898536,29.54937616683853,0.21733941587107025
7.713243965602374,0.10969179053058888,29.771358279894038,0.21762187016218568
7.928938616889779,0.11182413487791704,29.9823523875953,0.21954539336121856
8.147580530341816,0.11386371300523702,30.144886474045776,0.22121278780716094
8.367517981138707,0.11518247277513147,30.276970660274657,0.22133126956189506
8.592796443460005,0.11626596288055172,30.435034734587454,0.22097946904169605
8.81442246924846,0.11878240157481043,30.585014975529692,0.22339738990669564
9.030237592762882,0.1195506184581821,30.69928985355751,0.2225314253504986
9.256641882104091,0.12100579155276509,30.779247074273105,0.2228718091345433
9.486651409880846,0.12231168632355403,30.88082786546211,0.22284891649994937
9.716715804389521,0.12414410266687957,30.941878527168594,0.22375984804942614
9.935792366647686,0.12478086452160052,30.977066853217462,0.22248235079234538
10.154321844884581,0.12618039343847878,30.988690380859996,0.22260316285627293
10.37684293009874,0.12780106042762085,31.004226381141677,0.22307362047327786
10.595250587117713,0.1304472854144158,31.001675602979976,0.22530645431920984
10.813217168272635,0.1307930427686692,30.95768801558463,0.2235016349235889
11.026595643150777,0.13222800321489797,30.921220338476772,0.2235659499859121
11.244310778724387,0.1335767390218803,30.856883218373557,0.2234741409135591
11.46962951922886,0.1353908523149155,30.791476065353415,0.22406612460430217
11.704902180372153,0.135839065391605,30.673276621884302,0.22225229816327347
11.911491455205763,0.1379787244766296,30.58555714314764,0.223238858189657
12.115241015252609,0.13917499515313353,30.45019019793402,0.22281019677679767
12.32319189422239,0.14069157833714632,30.299348517634126,0.22282249291471246
12.5348071829472,0.14168811962658823,30.182249481370278,0.22199459435512692
12.760493056853289,0.1420186804456681,30.006880635090308,0.22006819485537155
12.970387288556728,0.1445914787258788,29.846252082922636,0.2215470545878138
13.201373466631336,0.14429604298264154,29.660081753963457,0.21858565786169262
13.4338229181681,0.14582156388603681,29.48347879777178,0.21831631107678165
13.648407902375439,0.14699394832041648,29.314020383297144,0.21758352249810914
13.8624434095688,0.1493388655965271,29.114521277099882,0.2186320642109723
14.087512597525716,0.14970666420958498,28.910639156549035,0.21669991822254983
14.304763210501598,0.15103657480522395,28.68045081903231,0.2161162218218887
14.499328528131622,0.152349785334561,28.432766459493504,0.21551914667871483
14.703682766946098,0.1537551654719329,28.19437999453012,0.21509030890894704
14.918721196609118,0.15373729620036192,27.93721977754148,0.21261060562666104
15.135012455305317,0.1558946293611188,27.681595184770895,0.21308143825167125
15.34706051794375,0.15716194579490733,27.44346091777256,0.21233616726811194
15.554719862243486,0.15832990728144955,27.178387097141602,0.21148199866824535
15.777132653505088,0.15785229684750648,26.919929679422392,0.2083858691587314
15.980559156088875,0.15964837655478126,26.658933726268238,0.20834209449767901
16.2159216705512,0.16068773341733267,26.367860005812254,0.20721165529139884
16.443504243189878,0.16200238476336012,26.101952843945877,0.20633726139200698
16.66712905461554,0.16287587233245013,25.80030625215696,0.20491764316567004
16.898355668974137,0.16435729270521,25.50927871203163,0.20421418102209804
17.1038981376772,0.16543822168821284,25.195054178841023,0.20301449527732401
17.309771247169802,0.16724270048274756,24.84373668872769,0.202672100472744
17.509210146076033,0.16810997784594844,24.538970445331625,0.2011810098029883
17.716049379858656,0.16863887259832133,24.22123196025845,0.19937476592854775
17.916326589272327,0.16939489111007738,23.883396000631606,0.19779342562804536
18.12177692141117,0.17146730067430435,23.528097325820113,0.19767376796173936
18.32322371933931,0.17172182383536425,23.20931920074197,0.19542979683516698
18.537300428195472,0.17268678394615208,22.89110435741473,0.19408519038398628
18.741345878482363,0.17450947642207496,22.559442739094738,0.19366261841069984
18.974105493025768,0.17506889240961226,22.19315270157407,0.19169760706831793
19.165386148141547,0.1757255547997038,21.87975037186113,0.18986465385249215
19.353127270405373,0.17682254466479128,21.53693265946478,0.18866986061619426
19.54655557142875,0.17694476735725365,21.203825703794415,0.18641344366696477
19.745116033560883,0.17703628750420147,20.873007393918197,0.18413142452700304
19.942163137691498,0.17963300331373108,20.525828230927075,0.18441946492791464
20.119284589483453,0.17906519684290242,20.19055951939658,0.18144108642948364
20.299666641635685,0.18050223936771778,19.87368683176225,0.18062250615285388
20.497297285601665,0.18145871974177794,19.52099591115731,0.17923641330182746
20.681956665705428,0.1826265671820744,19.183202458070433,0.17797990538456737
20.86863122375145,0.18358449774040803,18.843497803880908,0.17655373457240353
21.052678099174262,0.1834160221065845,18.51009611068126,0.17404086138446737
21.22594318862809,0.1843554337063571,18.189575549639983,0.1726519901960259
21.400301716361536,0.18528337681602622,17.86202647904589,0.17128217781686708
21.572074071127833,0.18564640316592904,17.52846206525227,0.16936213214127332
21.736495341355642,0.18586668357751254,17.203607860808816,0.16732753066972952
21.89661526659371,0.1881579520587063,16.85961639179945,0.16714325650291742
22.071226064818685,0.1875979259408722,16.544078950188123,0.16438452536630135
22.263589808067156,0.1884335607389232,16.217756421143616,0.1628689308480295
22.452152032838626,0.18941289154515573,15.886785128997897,0.16139307766065503
22.60932955628003,0.19074021805105013,15.573397551926098,0.16025400978336393
22.805977602844,0.19216278256537178,15.268680982815049,0.1592313720338204
22.98080013662782,0.19134623862417505,14.967823042430325,0.1563480566295212
23.167500479176038,0.19491927394119787,14.67790334549302,0.15709888077080897
23.33118974393813,0.1933210643727738,14.38497472983781,0.1536649011331101
23.487992231960654,0.19465230999246005,14.09613654687818,0.15264843054974747
23.67098271780885,0.1955386566914612,13.818759593697543,0.1512692965232219
23.8456424441641,0.1955916427364129,13.524697238601354,0.14920282004682575
24.024152939890165,0.19616912353759558,13.257926860144778,0.14755582475889933
24.193227213881674,0.19624897124383733,12.979540364953781,0.14557414988254627
24.324341296757787,0.1973610876236765,12.717408949506677,0.14442838713324901
24.490039149587002,0.1990548896201044,12.463945544374953,0.1437544027096747
24.63647574575076,0.199878773815094,12.210472585646677,0.14243663253261296
24.799178672142116,0.2003488347324596,11.950282476548503,0.14084393120444347
24.96733388549396,0.20145167247647225,11.701249781311704,0.13966587090998883
25.13613562302263,0.2015027001684899,11.46544464265095,0.13778924853789046
25.338506921454087,0.2026357184202254,11.241145444240358,0.13667717134118937
25.46545020351886,0.2021652903949658,11.013953935540002,0.13454245239982002
25.571861257209203,0.20310520621483505,10.795439362343105,0.13348648096055424
25.734714740221627,0.2034486972418716,10.582628054726976,0.13204452646458606
25.86472889263882,0.20386427976469973,10.38076346665109,0.13064993036330708
25.99613813992231,0.20520377661537617,10.169768406024701,0.12988487357775344
26.120758485203634,0.20512726825544483,9.97840292302591,0.12823103572462274
26.229553841732194,0.20461840732202272,9.785000738319463,0.12639267881610403
26.386416552245176,0.20751123307334368,9.615396835411381,0.1266869391058167
26.50680308108143,0.20674754399251644,9.429831268114864,0.1247221962341388
26.6635622126814,0.20691074856891778,9.268871005854434,0.12335536161160507
26.80591000844609,0.20759900228021136,9.111630289442969,0.1223592667590506
26.908015849500423,0.2083036796639659,8.953058091243989,0.12142778809727739
27.032557385916924,0.209857404750077,8.795634763020269,0.12100579877475551
27.12718763810136,0.2086966738773948,8.635411654472543,0.11901025293337669
27.244912058195297,0.20936022803949628,8.504073145128812,0.11814927752309924
27.37198898245895,0.2104503578903074,8.383561272034969,0.117606026161816
27.510037844904296,0.21035851861341157,8.259617287754196,0.11641375815073633
27.635615417637464,0.20961963864310257,8.143761880261062,0.11488470773418738
27.76238770607943,0.2121568365481501,8.037480290406469,0.11521940384633265
27.864170460578634,0.2124996478974832,7.927391855556078,0.11438770981742158
27.992049656483484,0.2115072667093432,7.824009133886397,0.11285428647351925
28.132546167811014,0.21196986627775613,7.741713095493936,0.11215161133549088
28.252829897615698,0.2120732783006358,7.665021150414605,0.11135439865009296
28.371880986814915,0.21357585390255232,7.598133426503302,0.11136686886884885
28.507993302560898,0.2145852233043504,7.534831687885138,0.11114806293030623
28.65688558103723,0.21379176303042138,7.475847839804861,0.11001379190202172
28.746669569024913,0.21532761093073502,7.430085902302993,0.11017442209988064
28.888162577176995,0.2154582050253097,7.389314371320299,0.10967533407194319
28.984359949242826,0.21692926328715575,7.3521473913389785,0.10990345690805059
29.111603768252248,0.2166269811522541,7.328045486628403,0.10928532094549613
