$D^a [mM]$,$D^a [mM]$,$I_{islet}^a\ [pg/islet]$,$I_{islet}^a\ [pg/islet]$
0.51884630584069,0.053081186372091,3.037345340137829,0.11323598082283469
0.5678828077932645,0.052450117174556,4.075653318459719,0.1269666666062493
0.6395731477766277,0.05431995001857272,5.103027460278834,0.1444812829537083
0.7278512164579686,0.05745649340346653,6.118044082511486,0.16145986323410486
0.8292015980308386,0.0612015111043876,7.123588725468307,0.17691094043310426
0.9416027871444059,0.06568186242441637,8.11837714043128,0.1921690706413493
1.0641816462931448,0.0700091346481744,9.093819345835906,0.20527801363809015
1.1953673899547819,0.07401968580367953,10.071495819208392,0.21621496611396085
1.335130863447168,0.07872379517656372,11.006950993095451,0.22821984914682603
1.4796522586411156,0.08353770736260593,11.934038765114234,0.23971476031229405
1.6311304992344404,0.08754553930181157,12.832215564884937,0.2483897156589763
1.788563803836144,0.09158219108884119,13.710727079163114,0.2566364307648494
1.9485701463965692,0.09596083872443996,14.57176631668491,0.26554002704928775
2.1140368298633008,0.10024591674112736,15.414875702916051,0.27394278688269447
2.2845251206612405,0.10429953542570661,16.228523988741898,0.28139450587420617
2.4568452727031644,0.10869068421962257,17.03705490207835,0.2895542675211008
2.6355952292776355,0.11224978038305157,17.799124382149643,0.29527237935136713
2.816587378421316,0.11641750977154369,18.5460169131194,0.30230442786696965
3.001022095366516,0.12011598664595012,19.261547385540837,0.30794448587643397
3.189526206130708,0.12448240477715859,19.96289631465263,0.31510775634223476
3.3765072810706402,0.1285714077946712,20.63832060080043,0.3214585128792693
3.570113403288052,0.13122975526664674,21.29053172817323,0.32412463956314286
3.7589914643466553,0.13566108327583326,21.94654275858622,0.3312042584040098
3.955262647571598,0.13878288739198102,22.55218841367876,0.3350308458405795
4.150610406950581,0.1430894594953884,23.13426957063262,0.34145306192069935
4.349234594768248,0.14611751418037736,23.68016725992962,0.34465518135065853
4.551860343194473,0.1491439002458254,24.243231043914648,0.3477917019001117
4.758006269087695,0.15277828949505232,24.73657215580934,0.35220396211644156
4.961492468426933,0.15658673219438352,25.202893968998453,0.35673466394072045
5.163665494334643,0.15943245929788818,25.664538935183167,0.3590999862288615
5.365994739511678,0.1626137434168903,26.135496098453697,0.36236764830652796
5.572945632557224,0.16683154883871593,26.564046456989658,0.3679036831372049
5.780092419133413,0.17022004496612167,26.987555205378037,0.371415396332464
5.989815083309422,0.17269032487909997,27.38641642071752,0.37289559962011953
6.204038315421252,0.17556931997903263,27.77043671127784,0.37512184682086214
6.424888687807388,0.17857921003620905,28.096476884843568,0.3773929970340877
6.6405155035642105,0.18158639269530033,28.4309863164826,0.379486819220165
6.85695475234767,0.18490694407204983,28.71629842538235,0.38226371172318735
7.073493418659476,0.18823132746485655,29.02138047068086,0.3849627699738385
7.291051539433341,0.19041152235683861,29.301699919240686,0.38539702975950807
7.506452420593522,0.1939612213068284,29.5333264916541,0.38851581293304577
7.7255255781176295,0.1958921501443899,29.724011679630728,0.3881626377421062
7.948366674391946,0.19904771846771732,29.918801309485,0.390085832364397
8.172569943911407,0.2024939533606997,30.113964653775636,0.3925508222321249
8.399301351006697,0.20507420285980169,30.279709208226553,0.39327311706502366
8.621907150298542,0.20802546346123524,30.39740135796778,0.39458131014386405
8.83759744321864,0.21055159127883732,30.53237470059899,0.3951023035305621
9.070915953663661,0.21376146068822358,30.610499048882126,0.39680476176761326
9.295664464067215,0.21578958355895542,30.649700119426882,0.39594917719408446
9.519374240316392,0.2174746373118704,30.724473926815016,0.3945834568044998
9.748677637973126,0.22088922535968933,30.749765547960088,0.3963883624661927
9.970250707031006,0.2235218825399747,30.772018908768434,0.39663547780419395
10.174852316236633,0.22559813112745666,30.785760809387227,0.3960975291022453
10.390918201005721,0.22841607708727596,30.783028514872964,0.39696411595222425
10.611922142054048,0.23050774683448383,30.758340158129467,0.3963376209680442
10.830012784847558,0.2336077957045842,30.74232298269431,0.3974144738564465
11.047327937542674,0.2364632837166665,30.720865753868885,0.3981032748637112
11.268354841438942,0.23780834084898256,30.67996422493703,0.39620434292698287
11.491230839017202,0.23955131661208967,30.627162645392943,0.3949085005504515
11.711670120632625,0.24258447879905892,30.52289409863276,0.39561084330312596
11.932605857658391,0.24589496768819227,30.43212119519662,0.3966019214242899
12.15051579898905,0.2485867037161011,30.31641838042655,0.396602572815701
12.374975076911065,0.2502526225337215,30.213563980021778,0.3949091504373438
12.592101554614215,0.2539341404721444,30.057719719808386,0.39633476590915157
12.82446838274642,0.25501133010248145,29.925641973839696,0.39354985957560334
13.042771449077987,0.25505215485969523,29.762036356306837,0.38920149178589325
13.268872395740813,0.2565391850787937,29.609877841601477,0.3871296299307544
13.490585019007368,0.26074185607674394,29.42673155755234,0.3890865076558797
13.69958473597385,0.2642710679955994,29.258754360450876,0.39001864924374224
13.93019517866172,0.2651103250341143,29.010990851025465,0.38680441349931993
14.158898258326252,0.26859272013416335,28.81328772423802,0.3872058588731069
14.369554056057094,0.26984881627831264,28.56641076666639,0.38448919433794165
14.587662391977373,0.2722769975600154,28.331275374575903,0.38345255881894885
14.789539887917735,0.2735359723229044,28.04257235145111,0.38071380555989975
15.001195748415553,0.27475535676132545,27.79906586866163,0.377930969744527
15.216744471461114,0.27693541674618777,27.536720353002625,0.3765299646279942
15.433198983386129,0.2792815191213081,27.242798098247018,0.37516672535268974
15.635414571424057,0.2801027064171599,26.987158130586202,0.37180149782180594
15.838303176584983,0.2859496942961872,26.74344857309148,0.37535829418519157
16.066638792603946,0.2846044206264125,26.455511548830376,0.3692366261379017
16.2684980093289,0.28582382624214386,26.18697705161215,0.3664232340894242
16.49063972589658,0.2881210860265624,25.877869244840948,0.3649895325505434
16.699170499456624,0.29070693189139346,25.575729505908992,0.3637309643046072
16.89845152689002,0.2895937616573418,25.288809285703884,0.3580135839148951
17.099119988673877,0.29401238988253514,24.968824463700685,0.3592026202567952
17.29968565838873,0.296905555672376,24.672474098643416,0.3583929237061959
17.50610334629667,0.29643910834059783,24.322656522934274,0.3534358452096198
17.70137438568604,0.29985928201983164,24.023004063304157,0.35312370934138115
17.91434941691298,0.3009546994273214,23.707638871760025,0.3501065352345612
18.12709955767981,0.3029351112329088,23.39698838168759,0.348037458881748
18.34984280133446,0.3052321870025331,23.065852672184857,0.34622811452932506
18.544513606244056,0.3049771181053314,22.720977169354775,0.3414567405497115
18.74200959734859,0.3086438138899243,22.381220915976318,0.3411813634081326
18.916655639311106,0.30947627976789804,22.029055849704054,0.3377612155315529
19.097038228436958,0.31108430935545145,21.715127909966654,0.33535608182329785
19.29918305642019,0.31318101156304945,21.35913734152345,0.333391569870177
19.500845108406082,0.31520587577546333,21.027304473466483,0.3311506336832884
19.69760477097371,0.3158084077752486,20.68068446411496,0.327433464827004
19.873410861497614,0.31879256062055766,20.364836103535964,0.3263304183618917
20.05707025393551,0.3181753893416053,20.02554640758774,0.3216158722437002
20.222077790948823,0.32078405915366487,19.656144092329907,0.3200482606063815
20.407703658805517,0.32126383326654717,19.322246909491444,0.31630439399624327
20.593353686431648,0.32129789511122037,19.003803903625386,0.3122402265354006
20.77164838217783,0.3242571741770662,18.6588061515067,0.3110292234325386
20.97348158839974,0.32675488239343176,18.308798755601675,0.3091406254732738
21.162098361165263,0.3278272452559356,17.960066374973195,0.3058041874142985
21.319926510098718,0.3293707180935866,17.62775983507956,0.3030697536104965
21.49923539961366,0.33112814023290654,17.299383495624816,0.30065452772844564
21.685056935179734,0.3323804457473279,16.980707414058017,0.29773082608257423
21.866367413403427,0.3323502304363485,16.661119068844695,0.29366865550098414
22.04828180921219,0.334199395955806,16.33997719378713,0.29129446478589444
22.212611553541766,0.3370695379528655,16.006296193488865,0.2897378571257273
22.379365854446508,0.33676166357089954,15.675808743258115,0.28541795887774185
22.580246574422194,0.3383084709930611,15.361591858562315,0.28266437898801755
22.74574177928886,0.33863822635047786,15.055483405541235,0.278952304047409
22.896567083438132,0.3404979798668821,14.745227960462342,0.2766485698176598
23.054985326757784,0.341456857092157,14.471908757289047,0.27373860632602154
23.21528187163892,0.3437453577551641,14.16004429607597,0.27189217450714076
23.40536622213686,0.3448778411606381,13.88627450145531,0.268997845074055
23.58103741677856,0.34475650392720397,13.5933798501448,0.26513967068065775
23.729811372596036,0.347560290491493,13.30306754248137,0.2635447803478173
23.891720682612267,0.34752155385614336,13.012430150565406,0.25980028611386985
24.037931922488095,0.3510053901086046,12.738526556523455,0.2587494990694677
24.183503903588083,0.3521299729970552,12.463255092792917,0.2560025760272107
24.327566616420047,0.3525161820525359,12.19776881132293,0.2527559954328381
24.47906229378653,0.3518698444097299,11.943066060781915,0.24886611927979252
24.63551556501109,0.35414360859849775,11.684239560081629,0.2470376175289264
24.77853380082954,0.3554339946859145,11.446020197264783,0.2445505953041289
24.933678564931355,0.3579840872050406,11.19603434023472,0.24297954174115002
25.097295374250194,0.35782968666772974,10.9537946600147,0.23947246589734783
25.250180526807068,0.359420655549312,10.715198064858932,0.23716335161567556
25.40326860324779,0.3590716435095332,10.481191089996083,0.23362593790418157
25.559350476058082,0.35906913171710375,10.261305265483045,0.2304011440630659
25.700075904120737,0.3591849358892015,10.061184249432028,0.22744159383186127
25.8554626677151,0.36169712072352006,9.856483894154907,0.22609537419188322
25.997077626709963,0.36113171078513884,9.651039519277264,0.22276486582297758
26.141069961681573,0.36519381875470197,9.460642467787698,0.2223766171250886
26.310058677962093,0.3676411675333611,9.27011118483781,0.22096104672739775
26.43528097858624,0.3674106160267762,9.091887816841698,0.21800038339167585
26.570789996726752,0.369244830547766,8.917348179599813,0.21642846209281838
26.68376246223574,0.366764437210545,8.747990575930338,0.2123992174462958
26.82390545459228,0.3698037104370384,8.587289088526168,0.21165243439107065
26.93518912578498,0.37013060708400464,8.440760145984333,0.20943621896519704
27.053649623862672,0.371002466491901,8.28954518899512,0.20763559004564222
27.20834974213457,0.3716688675779453,8.151122002080704,0.2056884068500089
27.3212834911155,0.3751420511941475,8.01759157006618,0.2053741258249017
27.438185488620974,0.3727168035567103,7.889675838391128,0.20193807833474084
27.540653055802615,0.3722647856718446,7.766225161560843,0.19968353323127586
27.66885866221978,0.3740536169213344,7.650485709581825,0.19868566953123656
27.779537687467297,0.3747287806367648,7.544635459081951,0.19715704620023367
27.91465538757741,0.37661042812770873,7.437655687144382,0.19631718698883688
28.042813665094158,0.3794822386405407,7.339254346598477,0.19598463697645072
28.14702887606931,0.3791168378781609,7.246012346250996,0.19407892553211845
28.22152366133287,0.3798759133757468,7.166902463092313,0.19297095539933623
28.316883764906404,0.3789730267387682,7.095011696843554,0.19118885710300562
28.40213652070015,0.3787024180641075,7.026562679397308,0.18980637560070604
28.52927052056913,0.3811587624339776,6.966645894367884,0.18979591896941309
28.638991499627544,0.3838634463963439,6.907652974472687,0.18992138250247415
28.754005469290366,0.3852771000413914,6.863983125070131,0.18951788100906167
28.885032505232427,0.3845633021754623,6.822922682551205,0.18815364001304835
