$D^a [mM]$,$D^a [mM]$,$I_{islet}^a\ [pg/islet]$,$I_{islet}^a\ [pg/islet]$
0.5186917750298531,0.052881249811966145,3.044954013849527,0.11294769299929967
0.568644407934935,0.05206808324059258,4.07681667854004,0.1261786823061354
0.640322169097046,0.05431946362605107,5.106882252162005,0.14450967984493152
0.7289881276338188,0.05753713787433385,6.125802256952497,0.1616854886839478
0.8302068092190656,0.061551595949624345,7.13705154786544,0.17791919811083795
0.943431517982442,0.06534897226892238,8.120542968916947,0.1911717537364817
1.066237651663421,0.06979527363235563,9.095071607065355,0.2044965293544948
1.1977224515655822,0.0742450652517226,10.051520810362712,0.2165983190872143
1.336424195355442,0.07828839646603646,10.993138814712156,0.22659595909149954
1.4816430483984382,0.08291409033257005,11.914328278072796,0.23760901700828801
1.6319229607813317,0.08726350014509236,12.816392837300208,0.24728673754525443
1.7886100879018192,0.09188459907635915,13.70092143285691,0.25730429113582926
1.951397979526467,0.09616693456026891,14.564700903423912,0.2659260751777694
2.117572583440293,0.09996911485292366,15.42254778359624,0.2729528770715392
2.2873592565519956,0.10447439162433873,16.24438405345608,0.28173535415019946
2.4600557806088306,0.1081821267826948,17.039362720609677,0.28809289460588944
2.6396412764904276,0.1124166496197113,17.814738577202036,0.29559670477980693
2.8225111180578057,0.11686831645309179,18.551971816787503,0.30330523411146987
3.0033862217454943,0.12119048260003713,19.2817341305787,0.310560653579464
3.1867893915706706,0.12514547005621549,20.01750722749194,0.31698137338717564
3.378397634823386,0.12827215619280613,20.682504203143107,0.3210957512247698
3.5695043445274446,0.13160809967143855,21.332331563047468,0.32538397804187585
3.7641278004482484,0.1349748791531907,21.965661564365504,0.3297058835112798
3.962000799825261,0.139265693604093,22.59641258018236,0.3362060886661008
4.159521000099028,0.1426881848117583,23.16727038314987,0.3404496473104383
4.360789101143742,0.14721622836177828,23.729275078018006,0.3471521624624403
4.565495873666931,0.14994829640995272,24.26814382539759,0.34946748925725163
4.771016307728777,0.15227755519289404,24.791079233668363,0.35081816468269206
4.9752983766419545,0.15681684162733273,25.279111188805786,0.35719592834567615
5.183397149424847,0.15985124227161931,25.79104771948601,0.3601292357198779
5.393821604173569,0.1634847986547228,26.238477076841406,0.3643426759487619
5.60515893832699,0.1670667401911462,26.667253466231028,0.3681846339594009
5.81081594581541,0.1699450039107622,27.077193084843067,0.3704790135179526
6.027730325450475,0.17227029317759204,27.454840764949196,0.37149832115440184
6.235752828453706,0.17654087499851698,27.824175428480576,0.37657606253087084
6.456062476092224,0.17873136289621425,28.17997353620336,0.3771888603486658
6.674052563904614,0.18214696715784043,28.537958622979097,0.3803106888015432
6.895808209187956,0.18608135583674715,28.846670227575594,0.38444167107951566
7.1108612004708895,0.18762573305244895,29.124248154488747,0.3834579363164541
7.32694896296523,0.19160523409438587,29.39414127245956,0.38751529082357566
7.540020134604646,0.19427417321769205,29.656996059143697,0.3889084508802588
7.758798449896447,0.1968991458556431,29.864629815381893,0.3901251405145257
7.981648998049737,0.19917069908760535,30.021236263014302,0.3902989365852152
8.19655661218227,0.20151495963177712,30.184838956983434,0.3905419270803259
8.420145229714054,0.20462832720203697,30.332585328544077,0.39230863944203787
8.647361974375453,0.20784655479929198,30.46194484029721,0.3940964462802397
8.870304672573727,0.21032860248334798,30.567474429183704,0.3943892104762284
9.096914382128002,0.21305461898442432,30.663322971833598,0.3951354093262501
9.320431632713076,0.21556394656075548,30.73653434878634,0.39539745114457364
9.534825073809028,0.21923486649187238,30.79749035562245,0.3978332688806838
9.762331434605635,0.22160776464368542,30.826575247048112,0.3978212657125091
9.973975836836084,0.22279801663265217,30.85258826293277,0.39563531798953483
10.199990298801815,0.22524723181362893,30.848177574283127,0.39569935459436945
10.417445862994132,0.22886634073988724,30.851607935835975,0.3977104336117988
10.636186125544485,0.23027482482773473,30.84171703494283,0.39593700365781015
10.864945371597612,0.23298585241077827,30.811455892163806,0.3963142769594733
11.085213139073188,0.23574959756854763,30.780202348342396,0.39669440553462676
11.305725075839224,0.2393923992666113,30.70185656992589,0.3984832675693228
11.519343585199065,0.24172649194060378,30.606607407993483,0.39796089539880863
11.753316339975862,0.2457963196552041,30.518012573380616,0.40019072506516445
11.97758656347575,0.24497422139676056,30.430066824981107,0.3943662551654945
12.190416767055236,0.24674839393740533,30.327365552197385,0.39297817100832977
12.406140015658623,0.24862796208216018,30.16124901300962,0.39166531422237233
12.623934235720291,0.25088314338756934,30.002512403013448,0.39076250907691046
12.840113156326732,0.25417788472041003,29.858426169911688,0.39149920735819826
13.076886350467108,0.2559894304120222,29.687148800905604,0.3898296752359153
13.293616655286693,0.25991223898828986,29.52014746301833,0.39128930651940036
13.51286192511085,0.2606415252257363,29.332919763858495,0.3879748098151903
13.721183162202152,0.26303247711324707,29.12118767570461,0.3871401349541771
13.936465953575569,0.26500840370099454,28.896118771530062,0.38560581543043715
14.147068649227279,0.26575075180078694,28.660265541160065,0.38222610327566703
14.372634486983005,0.26588181315346676,28.41104929039599,0.3779055148090543
14.604379964632143,0.26992752848859397,28.168886390701363,0.37902132663357274
14.809295513279078,0.27333053944483954,27.90779453039292,0.3792197357413661
15.029854927929957,0.2756688676374921,27.67679814154822,0.3780170592930352
15.234797439936733,0.2772751393501838,27.426092639542084,0.3758742866399272
15.44566308569358,0.27916372453371235,27.158495372493718,0.3741079020938222
15.658554572095193,0.2802788809357524,26.900906347670034,0.3712335586298885
15.851092634436768,0.2826268498217645,26.587262961757347,0.3699861924546424
16.063084761017617,0.2839548221266182,26.303268248099965,0.3673003724757501
16.279204676483648,0.28638567465282827,25.986841310344214,0.3659338341002096
16.477280642247255,0.28730053928988913,25.71728900340189,0.3626653758328978
16.671479663461305,0.29096699018613154,25.423591408554014,0.36312023456573733
16.869947014721923,0.29167487680523624,25.113209158351832,0.3597331425121399
17.061132332351626,0.29484653937918787,24.823199670550277,0.3593871803443324
17.24586570923324,0.2959392669387988,24.4924781627899,0.35650608624528984
17.43994903042542,0.2966274374423926,24.194227005866445,0.3531138523205102
17.64612088604049,0.2976810976201046,23.884781586940854,0.35015650751213245
17.84795266150935,0.30131421498004735,23.565326357155918,0.3501122955594578
18.05439009242262,0.3020763708650709,23.261834814761347,0.3466819537537161
18.2572926053918,0.30555557062783206,22.912165393864534,0.3462980666020826
18.469226637054135,0.30690891762328243,22.582386283627013,0.34332418535648956
18.654370495706605,0.3072987705812479,22.24667709465259,0.3393752691034379
18.839719103298854,0.30603977457507303,21.94039122812771,0.3338564482489736
19.031520294869495,0.3097492596455397,21.57724993257604,0.3337260634071276
19.22963653554717,0.312152025193195,21.228755540872253,0.33188292895978877
19.438325864235594,0.31337491298597253,20.892134293275582,0.3287667470851804
19.60913320697729,0.31489852235847987,20.546680860285207,0.3260686510269218
19.78689200022639,0.3168954780385097,20.19782003500257,0.32393465749663874
19.968631934274747,0.3192092844848161,19.83351264082574,0.3219971045531669
20.159353051824848,0.318553269635781,19.483562822979867,0.3169787601128943
20.335201206660834,0.3201928847961758,19.15375601327287,0.31439643310319687
20.544876625508238,0.32292042587634656,18.808260572856057,0.3128398250211637
20.752191795633298,0.3236253866025488,18.447495705094294,0.3090712048976597
20.94232478568271,0.3250512425491928,18.105253893694023,0.3060196256725091
21.122869013796453,0.32451126498539634,17.760105273532915,0.30126382951559505
21.29532051219194,0.32817396818580674,17.424244730676815,0.30051803426600393
21.469517601571038,0.3298419707789048,17.09806714743489,0.29795004638938516
21.67750224269955,0.33122283136780994,16.763220048282566,0.2950479853607319
21.851135085439395,0.33136306227969825,16.419543254216638,0.29092899034816283
21.991939670906902,0.33627761128444245,16.110093632491598,0.2912444441890128
22.14660540336028,0.3358584513344699,15.781762097619163,0.28701958692216223
22.318440776284366,0.3348185716237497,15.472551002752649,0.28223106016303356
22.49297349061805,0.3370795476756605,15.175228114685991,0.2803028541981136
22.65870851815422,0.3385261966145486,14.846693951557276,0.27758947767427006
22.82758107826345,0.34204495256708317,14.539788447745924,0.27649099676687405
22.98126929690423,0.34147553960045507,14.232415616520834,0.2721407106007295
23.137015586152472,0.34281378124759126,13.946806959134184,0.2694618778090183
23.29027049660937,0.34267159357106775,13.637903731546295,0.26562036796305033
23.454614671115547,0.34308657208684945,13.32975834939048,0.26209522345685443
23.619807126036363,0.3471367554386545,13.044692219582183,0.2613541078035424
23.764656237446204,0.3482722904125666,12.75620280067137,0.2584676173254586
23.91188108345808,0.34835844392723264,12.48913158999231,0.25493739017093064
24.07157827627353,0.35102560584965015,12.204916306068437,0.2532867873900563
24.205355821907602,0.3526237328889785,11.933983674353346,0.2507942667068618
24.35575791016087,0.35215546726139163,11.662620433883957,0.2469072856335809
24.50919031090602,0.3518403421313137,11.400630207545191,0.2431375064872827
24.672886859903322,0.35505675794924463,11.148637922201837,0.24185036350559538
24.81725573666253,0.3551070661277271,10.900125482287223,0.2384270803730615
24.94801660433085,0.3563894765994363,10.661758384206497,0.2359590464238937
25.09624463147362,0.35756631514181697,10.420070951298909,0.23345104777685313
25.23866589584532,0.35849053029293115,10.183422363477494,0.2307337622594663
25.41631488243775,0.3604002898847877,9.953802857848832,0.22861283565031337
25.561941504050452,0.3622048612479417,9.73602241237371,0.22645958494028204
25.685044953945138,0.36164136761642074,9.521848212986775,0.2229980909813109
25.81413820607412,0.36362507320103654,9.314618055813336,0.22121227761654044
25.950957807202577,0.3639442827001049,9.11627822621842,0.21844144476184385
26.094221764023292,0.3633499522162204,8.9176719881389,0.21515488060690763
26.214801507817494,0.3640419202997622,8.724330813688237,0.21266959616604295
26.327934590477273,0.3665186328114952,8.530540171031467,0.21129239157863874
26.46366666842876,0.3663315901661759,8.351648972512999,0.20839330964516828
26.58400606826046,0.36763207628877914,8.171059690556332,0.20639521033276048
26.68116636093577,0.36806267551527483,7.991866966356432,0.203952280217194
26.80087302279466,0.3678902582655745,7.834169365772275,0.20129064681575645
26.93028286035218,0.37253117110649514,7.679285680792738,0.2013473481738967
27.03046398020827,0.3714485896852171,7.530907169993038,0.198342290965193
27.147551930587486,0.3682346438968037,7.391689596773597,0.19434811101260374
27.27553998999856,0.37292398380202874,7.254673506837677,0.19457673230135056
27.38925316165096,0.3736889866079937,7.128734130941068,0.192773751057438
27.50960142647951,0.3766039471314204,7.005555179082158,0.19216154430817747
27.583948476760266,0.3762754389135001,6.885976250891643,0.18998751767287778
27.708375598402046,0.3738190517324301,6.775560358311205,0.18683732686658835
27.833191730298466,0.3774634680185715,6.670449206093281,0.18675915584220085
27.94272824497356,0.3777677248891509,6.5770662358397045,0.1850977402587474
28.06144263019161,0.37955142009342735,6.488918723647612,0.18429535419116932
28.18665810977428,0.3800796636104628,6.412029311574552,0.18295800220483896
28.31472271343498,0.37991083675549114,6.331190915084798,0.18134658175624577
28.410066805453813,0.38080555564671115,6.262764323946928,0.18033364101738172
28.505965051666795,0.38046309249101307,6.195408457410499,0.17886253467002372
28.630530523602033,0.379061440932405,6.137651753158817,0.17695482956502426
