$D^a [mM]$,$D^a [mM]$,$I_{islet}^a\ [pg/islet]$,$I_{islet}^a\ [pg/islet]$
0.5189073613425256,0.1408364104371376,3.0390466764379216,0.28385355309491994
0.568407274913636,0.16015261077880336,4.076903271018374,0.380468356558616
0.6396319988446056,0.170613998881242,5.106863821473397,0.45200017156063527
0.7277358018496742,0.18123899047425981,6.120922252779686,0.5089211540019278
0.8288475659640054,0.19313105293780922,7.1303156280960245,0.5584326694598106
0.9414240445940983,0.20694577412979434,8.121006502508246,0.6057583971838405
1.0630026088542577,0.2205246993714058,9.09238517437387,0.6468459263538283
1.1928066284641439,0.2331483611128878,10.056887914286872,0.681318251834083
1.3304481051290897,0.2492194724906327,11.003037962412465,0.7230864093812478
1.4752328787380924,0.2619503364015259,11.928268751246137,0.7526743064756382
1.626379920506846,0.27624534720454275,12.837780200113729,0.7849276094867148
1.7811673836293094,0.28986460020714816,13.73255804942156,0.8139730258441186
1.9420637624756847,0.30396990835409776,14.590471614811294,0.8433068423334309
2.1066144388739994,0.3151439655509504,15.424574844287767,0.863136307721547
2.275749304386347,0.32851231910785667,16.23946397995528,0.8882632799365253
2.4488044826756896,0.342224346742018,17.02476281174112,0.9134157753105069
2.6247266453929265,0.3539576227688453,17.829141134411476,0.9329695974326561
2.8012268880203783,0.36644893661395345,18.56923739975461,0.9544106680884367
2.983626791486786,0.38050165307551137,19.301245593258464,0.9789796015761822
3.1676479342583033,0.3900016587173494,20.020850042356308,0.9914117123399507
3.3582041946357775,0.40490783789227963,20.722154179031698,1.0172162105682465
3.5481915655411864,0.4174973079095652,21.37343663415568,1.036286608531507
3.7423393063508956,0.42543313447215847,22.00815316354231,1.0432906261245056
3.941630204086584,0.43641109107074944,22.605323016612928,1.057198508350368
4.139592857689567,0.4478961013668425,23.21407642798807,1.0720995859405664
4.344250650470214,0.4630630267959378,23.781427255560725,1.095526929514135
4.550785333839443,0.469386106350424,24.3326214418523,1.0972619935047268
4.745900898183754,0.479687097493674,24.840276252056423,1.1086740453409611
4.9537868257494395,0.4904799543513592,25.359404816677714,1.1212661185371546
5.1625953610734205,0.5016689181720531,25.811963676588658,1.1339155961989187
5.370665943051478,0.5164302240702622,26.24000019516943,1.153772823723021
5.578303351079171,0.5233272677049159,26.649034162782282,1.155804213050138
5.789417151825969,0.5357256069619357,27.051081280445064,1.170006292075049
6.001562871688127,0.5480143980342691,27.418803613007718,1.1835395839492155
6.2084259864717986,0.5542729863670449,27.753429465102858,1.1837721809966821
6.4229252334041425,0.5653199349894508,28.116226786051254,1.1944738803492458
6.637300950225836,0.5711486175795563,28.425310605637005,1.1938772362046328
6.850576742963762,0.5838972921984135,28.71711221303516,1.207432519722445
7.060839433852321,0.5935875320853934,29.009243350324695,1.214696234368897
7.275798488151297,0.600141200854931,29.23604994571813,1.215203266088874
7.497901781603403,0.6103985157656162,29.496525888859264,1.2226617686327972
7.712640973705862,0.6176629814487546,29.75387099360984,1.2244877468005915
7.937402756132426,0.6289686066849486,29.951208112449645,1.2340827157171559
8.160677250052034,0.6369836464720717,30.150124826485012,1.236423750763364
8.373969938611694,0.6499753204810411,30.31111555621254,1.2485064870215608
8.590906850606082,0.655160924384065,30.468058794934215,1.2455474484966564
8.806976733347415,0.6625826554821952,30.578409774922537,1.2467032724713085
9.028274331324925,0.6702734433914354,30.69315805552481,1.247938200287688
9.248453023910736,0.6793263171870402,30.80088634564278,1.2516449608848716
9.476979341433355,0.6886401951182882,30.890264811813427,1.2555733751413989
9.690876793133588,0.6951329787761115,30.953571903333945,1.2541721289251702
9.897151261840355,0.7070765544702876,30.991149941538918,1.262936740828834
10.118913396670312,0.7110609017821051,31.021554525075032,1.257068253336524
10.339563824183417,0.717212455916326,31.026079121454092,1.2546062294654166
10.564497842106219,0.7300636613218386,31.01450140275935,1.2634653128392936
10.766828972861276,0.7317664748733012,30.988076151736177,1.2530686869178136
10.980044229771487,0.7389781019551883,30.942408971909906,1.2525569074836749
11.194373294021341,0.7492028516795741,30.909071626130604,1.2568133527067342
11.415124843599656,0.7566329318118211,30.846876360348986,1.2560356809880233
11.64139684265289,0.7645027031791181,30.76740029246183,1.2554232496899633
11.8671112877957,0.7727130106542445,30.688406416862907,1.2550088963780763
12.091015798467788,0.7794814941450909,30.596950992023075,1.2523459281384255
12.314843098604374,0.7899342151139872,30.488267247093496,1.2554012954576912
12.542586071772496,0.7990334913839267,30.348269204806947,1.2557732051380877
12.765925189296642,0.8000032050271758,30.196534717697148,1.2430140090012602
12.994945063038303,0.8089015742445743,30.019889661356817,1.2425112703885193
13.220904712618573,0.8157242821315905,29.835791036325478,1.2383737534111667
13.44035949624467,0.8202601462916326,29.658239042576927,1.2309622155270104
13.653181325378467,0.8283252867804766,29.497978662836893,1.229490107779623
13.875536605699592,0.8364994314662825,29.342464127010118,1.2284180731341143
14.07334012805615,0.842831997989068,29.13890918887048,1.2246159662087055
14.284289697267415,0.8467131675737994,28.89490690603681,1.2167954220144432
14.502681812827944,0.8555862410178028,28.650397546827442,1.2153566188540095
14.723066332722128,0.8630749916331617,28.445763928744693,1.2119502769669717
14.930278708072047,0.868885100334889,28.186364777814667,1.2063034947577478
15.157108440609939,0.874502013436693,27.954723412256637,1.200124357696313
15.380415503775916,0.8757973015000834,27.709940108746615,1.1879444450878378
15.586283733287763,0.8890581184834775,27.439634666412285,1.1920746755863412
15.795786660458605,0.894100450918531,27.138963617201135,1.1847047216661823
16.010596883378597,0.9014217248197375,26.85945176256013,1.1801506550320924
16.227808726252523,0.9033159916709805,26.56268714509683,1.1684250563257346
16.448047597115057,0.9164451055630248,26.256005425787997,1.1708869842676433
16.64863048589031,0.9189976049371101,25.941010570758987,1.1596869716803433
16.87121623575601,0.9242977574055404,25.648236502243304,1.1522097528514936
17.069563779443737,0.9338840160420421,25.309589956552283,1.1499101643774834
17.281824969098146,0.9403571958099233,24.992471138879253,1.1435068070640129
17.480138418610107,0.9450491164075853,24.691034077574393,1.1352643079482239
17.691508751132766,0.9469158027444599,24.371154221830526,1.1237977434859001
17.894040759563957,0.9517579877740016,24.04849482575754,1.1156283640716442
18.11115709522627,0.9522497422267626,23.727588422773415,1.1023273493271932
18.287766673328328,0.9636409186575956,23.40536580603994,1.1019204290663407
18.49225423595575,0.9696111277609921,23.09792884337807,1.0955477263627322
18.696520358737057,0.9802703339900521,22.77372653442762,1.094100072312485
18.895843769524344,0.9858286639810041,22.430997914735737,1.08647565697939
19.08351434745858,0.9843878041521097,22.09482764608073,1.0710988480520307
19.286296919166233,0.9928707249246597,21.745805750031437,1.0666767155592707
19.484586358520605,0.9937264199529459,21.40055393045481,1.0536413191979872
19.690838437652317,0.9959905533546096,21.06101986123613,1.042243524235119
19.885967529440524,1.0029358124040204,20.73230758939656,1.0359006078498736
20.090622715303162,1.0040137111411267,20.402149199292257,1.0236476811340907
20.271026545707205,1.0142001434066683,20.06995943352351,1.020787782282266
20.466698642950828,1.0205882375880728,19.728628247292114,1.0139732853794052
20.656073547438705,1.0278878055727638,19.382664111829953,1.0076777519237865
20.852437042547635,1.0315157137409305,19.049919319922942,0.9977407112049834
21.045222714516342,1.0331188818727723,18.728084384346463,0.9861098101549841
21.223585296973503,1.0443612477903998,18.399142389843576,0.9838947207896053
21.413925560108755,1.0420007277315244,18.06430129454228,0.9686492888359385
21.586683083979374,1.0501326896452525,17.73915460344587,0.9632686141244852
21.724565263535187,1.0561843205811265,17.40482115711245,0.956321844650801
21.908102524642437,1.0522395306617713,17.06964779118495,0.940209697611374
22.102722089437094,1.053388253043212,16.75789969303894,0.928452436277061
22.28357986298249,1.0666773143957706,16.44561341523565,0.9275377798429102
22.468654083206886,1.0646725261482612,16.139682275558147,0.9132862323126273
22.648874075379716,1.0766803362300135,15.836923544825662,0.9112919131235294
22.829080026694164,1.0822698082965532,15.51621568792103,0.9035059168264762
22.990226537086194,1.086724267303255,15.21378199580867,0.8947872910473216
23.171113847901744,1.0812992634144105,14.920340210591819,0.878330172553143
23.357045675067134,1.0931490893524294,14.633072393592236,0.8760095650561008
23.523842252702988,1.0936655872886216,14.342912341714863,0.8644833944541112
23.69382312506387,1.1013773994085225,14.075227654939397,0.8590321255607656
23.850791779719934,1.0986767978615903,13.802675012816728,0.8457445580259342
24.020068166196577,1.103561986423536,13.52200111050297,0.8382756910154332
24.164530248397007,1.1092327481639224,13.26840607544515,0.8315269959799741
24.30654052642281,1.110444579366025,12.997632409433745,0.8217748055064941
24.461660090760773,1.121194736369969,12.743650538686211,0.818966251206056
24.61315437735434,1.1258486982405402,12.484208291544869,0.8116068283690402
24.760370227205822,1.1249299477640948,12.237919549530128,0.8003177514551086
24.904889341988962,1.1256304417611265,11.990004318517979,0.790449560647819
25.038713979741665,1.1297145564011897,11.744799483724476,0.7830257013109438
25.185621682796523,1.136649892266865,11.518453189423921,0.7777835839349733
25.32165647539309,1.142805359576896,11.296376058360732,0.7722029010867373
25.459752902905855,1.1434524116717393,11.063909927906968,0.7628767797189647
25.60196612411129,1.1396193758373103,10.845943954369348,0.7505532760090047
25.76623629847228,1.1431324333971253,10.633999766950941,0.7432701664748516
25.901390774945206,1.150062048755254,10.440274902815027,0.7384288791082823
26.046837054770595,1.1520018729825494,10.244704207747187,0.7307928365582308
26.207108279425636,1.1531679759375597,10.054001814148982,0.7225789210719814
26.33786170273861,1.1635256182402631,9.862979038886907,0.7201985364174569
26.46912759018184,1.1598239589405306,9.689047490975847,0.709446822911477
26.596824077605962,1.1646859258029116,9.518401780886231,0.7043447982793248
26.738945391437944,1.1629633134172064,9.357349139120043,0.6954039208438961
26.88074719797709,1.1697966625283642,9.210715442488816,0.6919112352114452
27.02567694418517,1.17676380128301,9.065877075693951,0.6886515735176567
27.128777865302602,1.1756628791238077,8.91970590568635,0.6808784070454058
27.234376926472,1.1818216332152551,8.781748187369008,0.6777049368799957
27.36744390985434,1.1813667417775318,8.653156304750217,0.6708433266189632
27.4970768105263,1.1828818346951457,8.537485089346168,0.6653273849056052
27.61855951182675,1.1867398840036807,8.415376419687812,0.6613245821330874
27.76427078473201,1.1819145724175293,8.308647860112728,0.6525356716411029
27.891175229111465,1.1897725954349851,8.206017584769743,0.6511330332290308
27.989297381818233,1.1964444111061074,8.116626563483297,0.6495303403595305
28.108301766629438,1.196236858295629,8.028406876204441,0.6445672399850353
28.21910472318683,1.2003511497872752,7.948874317775996,0.6420750912244723
28.335103468564718,1.202871989961364,7.879782801618011,0.6390172126463181
28.46080347933252,1.2061190009198832,7.814545426861017,0.6366332808374597
28.605472244621478,1.2010899041032783,7.762716743682563,0.6300583531166287
28.6908905921838,1.210648459480709,7.7262699014897915,0.6317981114686939
28.826799812151393,1.207957958230053,7.695168440198607,0.6276925629827
28.970308469640802,1.2240683345120438,7.673579789296767,0.6334376240818326
29.114840764707594,1.2239383657468823,7.650467375203504,0.6308297976523726
