$D^a [mM]$,$D^a [mM]$,$I_{islet}^a\ [pg/islet]$,$I_{islet}^a\ [pg/islet]$
0.5186886665347946,0.7130360847195953,3.038473814142089,1.4260910452659106
0.564377890079789,0.8873830849645228,4.07428162432164,2.096990886620287
0.6313454655101713,0.9637217832910636,5.10673484020718,2.5558840097450095
0.7154023417008235,1.0203940700760925,6.123393730841529,2.8819149712092984
0.8137803254371926,1.0811737103933596,7.131587675184254,3.1505846892326606
0.9233373959988065,1.1610893917810035,8.129855270672351,3.4289606079286985
1.043377146129284,1.2304563317283355,9.114363763162162,3.6444739324845
1.171232831342003,1.3053430748795045,10.078486310202605,3.852889375183557
1.3078227097924506,1.3852695405093285,11.023855503453936,4.058234666072362
1.4519147298899595,1.46453572901615,11.94256790256945,4.246331447269858
1.6006935847664656,1.5503796131494225,12.857713980376914,4.4431281241880995
1.7554330826612654,1.6155904209247547,13.753277236213409,4.5745504443705425
1.914704730142136,1.6870829065573518,14.626670575566477,4.718120079750223
2.077818288851014,1.7530586146921106,15.493155399243205,4.842191807227741
2.2457757409690555,1.8240897419810815,16.312952720845388,4.976017073730927
2.418383018427682,1.9041684214637133,17.109792148202082,5.127290149168677
2.595715941662001,1.9892114025830696,17.88680828293455,5.285999275278603
2.7742886608437196,2.055713382129275,18.633280375416632,5.391368521188014
2.9590395478954794,2.129097959942102,19.357500130311138,5.5119109656246215
3.145773465686542,2.197850956391541,20.063371917678563,5.6161541990674815
3.336644556288633,2.257880017428331,20.764098172524232,5.696956918059814
3.527506115850546,2.3338013034824745,21.428154555603797,5.816875746732441
3.723932277700203,2.3997809498606277,22.07931506031644,5.90893490640004
3.9207557574833256,2.463029149682782,22.696243560369012,5.991711720165091
4.115229784754106,2.541080651932323,23.292827741533475,6.109641021134104
4.313249071051846,2.5861958970131314,23.86766388151128,6.147512870219331
4.516443743875041,2.6405231130832347,24.436269859675317,6.206167673945248
4.716665819191182,2.7088353487212404,24.954851422481035,6.295721252132503
4.926943643697452,2.778714083800575,25.452785748977593,6.384264304151782
5.128250503627902,2.814204726590928,25.937952613486356,6.392425366140683
5.338345457376925,2.854479926863283,26.38070219606044,6.4122818677177635
5.547770570379793,2.939875705761905,26.81696016055196,6.5300605319041996
5.754797184225813,2.9941808005294632,27.26035934665193,6.57917005309084
5.963624825432647,3.0475112435617397,27.650816514089612,6.626826755375086
6.17697569979296,3.110463344409566,28.02875873511295,6.691881191459618
6.3896756416766385,3.1679185000966297,28.38438339110021,6.742732580625341
6.601039060182277,3.221368653884637,28.71181261511018,6.783983093697411
6.8160953494850025,3.2728366981871555,29.017816488700802,6.819481542020661
7.028726728006591,3.3208656503783183,29.34087435042388,6.847977514154228
7.2461564087914825,3.3686926678575158,29.617290381188564,6.876094467184379
7.468302742845559,3.4342040894711854,29.890604533283195,6.9368111198726705
7.68216067215108,3.4931718393559676,30.10130802922651,6.981842263258196
7.9052339720304685,3.5382666251103347,30.358736793562333,6.9988241269199944
8.125047332903259,3.5832433143240885,30.539457737518163,7.014795813694103
8.355730082797301,3.633546202262499,30.742151845992424,7.037491026664768
8.572538049984278,3.687787947521235,30.87752230927351,7.0670835518903035
8.79639511328343,3.7421724940871535,31.020252136695117,7.095528134561179
9.024219121463005,3.788245341976251,31.14658091325799,7.106426681531632
9.242581120087616,3.832252369086515,31.25665495557374,7.11378593894104
9.455804302553158,3.8684507767755605,31.352899141085967,7.108731875229535
9.680626950244783,3.900202195860119,31.459986398237202,7.095543722378333
9.898098916018425,3.962426442922813,31.503319369079883,7.1360738777775765
10.121600965052503,4.014820547073161,31.560028599454267,7.156180808833489
10.34646699911241,4.03935195876856,31.589417558101697,7.125342634031182
10.560165016335876,4.084811025684494,31.63290343492111,7.13312586125121
10.785261228402161,4.119152603193295,31.653500555766627,7.122291037636041
11.005792402101305,4.165323917043263,31.650196225291108,7.129484489533719
11.228679965396164,4.198109285817655,31.611776842651448,7.111456844997332
11.448830499333658,4.246746852955288,31.577426280201678,7.119173276840453
11.661042454118812,4.316564701121565,31.537170087415475,7.163442499862833
11.89341138837049,4.350880925846395,31.44887445153283,7.145427174427959
12.110747686173163,4.3929060799689665,31.331197509966035,7.135299805606362
12.33027641364031,4.431495005261741,31.22095083862714,7.120173032221674
12.555395579877366,4.459886944633004,31.101437905449654,7.088309494606107
12.769371950542753,4.513044865838125,30.988716216968896,7.096804057409886
12.99820175799732,4.552612795397667,30.853491903446507,7.083192025207814
13.227960108463163,4.5904825797061175,30.71023411060683,7.0637979731929725
13.440357654489134,4.621753689457888,30.534042089526654,7.0342154179140435
13.666943259070996,4.638083765103027,30.390906093265706,6.983091176801874
13.887804597057006,4.708157362858588,30.200172878262617,7.012059783863036
14.109423778476346,4.761444296973441,30.037050661446468,7.014244817269349
14.333722142172832,4.7830270819910385,29.885865477702993,6.971540223411533
14.552121398306777,4.821330202666773,29.699576033440323,6.953832134034805
14.770147356960225,4.846194017764731,29.465786765030273,6.9135715590953835
14.979433516981958,4.880634709973285,29.247670568810292,6.886131571883671
15.188341178271608,4.954305969397291,29.039922706391078,6.915735435147918
15.410754869821792,4.963799364721899,28.792077293570312,6.8533580800662595
15.617635386724036,4.986619162639196,28.56328883628583,6.808743254919912
15.831599667788755,5.014667987779273,28.32120794627767,6.773105063342594
16.054817080856374,5.05405432066098,28.076117852139774,6.750623311208537
16.26910511067522,5.084695539106541,27.817755672196647,6.715514175395834
16.480860381483783,5.155365710534729,27.540036988221757,6.732114397749033
16.6915223924,5.17956608241185,27.294395247926225,6.687964665382207
16.903216417129325,5.173446480952746,27.02006972017952,6.606163320786998
17.110104075756272,5.221712878034375,26.756949133296352,6.594150813782628
17.30839070350664,5.242014037714921,26.473975064007707,6.546991362051837
17.505790846370267,5.3079638138392715,26.199887434341907,6.557003900977978
17.71667650403461,5.309176357897019,25.93387482860645,6.486489436903159
17.92516169054001,5.39493918591807,25.64177039270498,6.518000260437611
18.138400590683474,5.3812142875421385,25.34489003039754,6.426159967004315
18.335059260545947,5.369448730447219,25.04938391329468,6.338681287613051
18.55446132140227,5.454232822198971,24.752910124502826,6.3653278387383265
18.749651371984125,5.4764582517136855,24.464774716568556,6.31768592968831
18.943274807700096,5.480836736015966,24.166293971149752,6.252057586901987
19.143195700183586,5.524358162934087,23.86058445877212,6.23044710043323
19.32378894554563,5.564603044250513,23.592685111250724,6.206482350637668
19.53007716098512,5.609902285171923,23.295287158035368,6.188825460430505
19.72619643268371,5.629103243812664,23.00241591472967,6.139348020827881
19.92978350558267,5.667892927910594,22.707195913048825,6.1113747678840245
20.103269088885586,5.667250918163729,22.407846584586004,6.041675910357282
20.293563925776436,5.696643406105105,22.114076015534454,6.005807482019984
20.489462669755866,5.756791333816602,21.817087824608002,6.000621441113074
20.692851206068337,5.7486464604345775,21.53252087697729,5.923104067623958
20.88218574613586,5.7819459757132154,21.250646832510927,5.890328090681742
21.07367065571453,5.812262951554711,20.95277309343116,5.85424679712807
21.269732995581567,5.867896665203093,20.667839388287007,5.842573735293087
21.472131732972976,5.877653341436582,20.361019761145975,5.783527743619585
21.667241985335025,5.9639024045795965,20.089277355357094,5.799949781989752
21.853690332013084,5.9432410425180064,19.826992126181537,5.715171721556036
22.05675439612305,5.946552125496285,19.53664914823317,5.653923403228379
22.24368342467793,5.97875919091353,19.250155982879473,5.618240647398903
22.4146636036112,6.004288886582851,18.98428316870986,5.578671989610795
22.614464635127817,6.0396020475048235,18.719747594684932,5.549463806769308
22.780339981254322,6.051359983958332,18.47104795740323,5.4994316030109145
22.957625641386194,6.080076646719219,18.241946937466963,5.46869870982469
23.128331901422943,6.077279259351263,17.998324729952266,5.410136228157363
23.291282969300962,6.089310304570462,17.757870397906192,5.365149288571797
23.449569902416343,6.128585878364802,17.515197694673613,5.344638814904761
23.630419078936978,6.174621460758101,17.274826833607964,5.328758341302382
23.810486977068575,6.173834522143423,17.05570542258732,5.2722927220000475
23.98074197197047,6.2391878364836835,16.820393471246742,5.273373196358389
24.136438632984532,6.186337475644084,16.619800225096323,5.1763512016375595
24.302396179810792,6.205975796179396,16.380103880804363,5.141725317379249
24.43707902129116,6.262041366516499,16.171691343854725,5.136706722117221
24.59939132967981,6.299345315741361,15.970933298729479,5.118583811658728
24.75379525569683,6.302180340855796,15.788014691026499,5.073423280260773
24.94561171539447,6.340495307861297,15.588720270440959,5.056147293650784
25.108398957091115,6.377081165651449,15.40267306550617,5.036000965574597
25.2475373674965,6.389443015308888,15.227705158620198,5.000291694001517
25.442572875832937,6.421349073520521,15.060728004455516,4.980696180151193
25.61279514361934,6.392742831486147,14.897394728785455,4.913568244943998
25.795011817453606,6.433836689017197,14.73816704176228,4.901509996714266
25.942134313140556,6.440585848953263,14.5962911673379,4.865277582519978
26.095670365182084,6.458056886723627,14.45729270709012,4.8404730176608535
26.258318887264796,6.488744248563965,14.332534941140798,4.826378960387514
26.41618262620097,6.508351262896649,14.212455086351783,4.805234986599801
26.594269441556374,6.54576494262868,14.10656219811666,4.798175711092732
26.727060337502888,6.5385017648868695,13.994035319175449,4.759827654102057
26.887169505863874,6.5918471369363765,13.90181309594166,4.767608493047482
27.081500679314146,6.596570322254224,13.821005164941413,4.7403672353285735
27.249044522998606,6.649606447872318,13.753907614810386,4.7492286617382256
27.390607268160895,6.659101618343969,13.679733448362672,4.729594785583966
27.512569809033202,6.6307272413834895,13.613621241733494,4.685445404961334
27.668191801201726,6.680325052435921,13.555667419484111,4.697853793234684
27.822192848770012,6.708596392880026,13.511319636139172,4.695388753984108
27.965125996025023,6.690072867652781,13.484886411482302,4.662994011622901
28.13715442020733,6.748061068053126,13.476195323852263,4.686575200525096
28.295881710284775,6.753865037528254,13.466489283453102,4.674727371862063
28.45121781902077,6.751855704171662,13.46840233474558,4.659218427900798
28.60284106674425,6.769204163277668,13.482256560393793,4.659363712792107
28.749543448785808,6.830455878718093,13.515577942899323,4.69264090075592
28.92203329220296,6.8075334182877345,13.551824325616861,4.669440228335068
29.058001751981372,6.822697097806732,13.601764128504279,4.674245208633184
29.188756321954543,6.877396520689355,13.639882000964265,4.708209975445716
29.367565280768396,6.872123469809365,13.692479798086929,4.699843891766993
29.545564456827826,6.904427724975073,13.76157846510645,4.717684030314284
29.698160366669523,6.910459296984468,13.835303162362063,4.720090105532016
29.830240576637582,6.9287367142775445,13.928967880731001,4.734684638136082
29.98006483457716,6.925660118265543,14.033898976798818,4.737663499707823
30.127385894519872,6.988540037377621,14.15265223038077,4.787290863650036
