$D^a [mM]$,$D^a [mM]$,$I_{islet}^a\ [pg/islet]$,$I_{islet}^a\ [pg/islet]$
0.5182464568427846,0.18567275359557522,3.0359748855337076,0.3724022180977569
0.5646108449613962,0.2195733520366383,4.07212236086251,0.5209902456236838
0.6322508048879788,0.2345369094544021,5.094813311250897,0.622988629002066
0.7179469928187581,0.24902524931282158,6.168663843226703,0.7039647330095405
0.8222441815398986,0.2647821288175823,7.153996899601927,0.7719509521106971
0.9376262883573696,0.2842070457184288,8.13244246156999,0.8361529689829315
1.062497070788957,0.30304086838478117,9.07561000396654,0.8905437218791198
1.2025334894128614,0.3214627256578469,9.950701129372561,0.9360304344712581
1.3481350402629453,0.3432425354545453,10.809220825053355,0.9850896218759475
1.4856185123022414,0.3641449984348069,11.713843437104444,1.0319756396623478
1.6280233374379738,0.3798575320187154,12.663886838555541,1.0675273721089482
1.7814771557368174,0.39863802123653747,13.711295478526463,1.113145180838615
1.946828106103267,0.41779122332887597,14.48228925474449,1.1554029604814973
2.126155717481289,0.4367204038726633,15.364109438363286,1.1897380628443543
2.293121698610892,0.457559424323678,16.05877377756513,1.2280421069458751
2.469890961124293,0.4744578866810185,16.98423043203491,1.2565640274947558
2.634630808109725,0.49113919582844695,17.926553279969827,1.2900281021659505
2.8015083938534984,0.5080141130725254,18.586858737903142,1.3231673306212561
2.9715200153996855,0.5203249291933961,19.55318775285571,1.343262478318721
3.1472548968834944,0.5360046535444908,20.095509636734402,1.3715417743863163
3.354662331056426,0.5528503065595424,20.622133209830285,1.3926477824712644
3.5282116752981088,0.5681923488714177,21.368093560991905,1.4110260973892883
3.6987522874793926,0.5837987988943345,21.965590348508385,1.436377433617876
3.8815759243361128,0.5993115381455058,22.452376559605824,1.4583813568250072
4.050410177843459,0.6198496162703404,23.042323148375228,1.491733112403191
4.242147381065958,0.631915167489812,23.879944450469957,1.509090222015987
4.477064704758669,0.6476674205955746,24.3422356587758,1.531158468255839
4.69088565864905,0.6591094958972645,24.902679323906042,1.5360331365154698
4.886552741096963,0.6808314089044467,25.320400066345616,1.5672769341540758
5.047409462289924,0.6925333016621684,25.840444318271715,1.578483966737002
5.258107396693807,0.7030897028374357,26.33179318737887,1.5889212433661273
5.470347368045315,0.7161110551601999,26.959172986361658,1.6029500321616004
5.698379335324343,0.7275824254746497,27.16881447040288,1.6101645161932205
5.9649207464675955,0.7470477559507622,27.588487825673113,1.6281329597480672
6.1681107762117104,0.7595602785826955,28.334097793234005,1.6375971875459852
6.351784328040356,0.774337299356775,28.794635214131333,1.6600044424248617
6.582011983046927,0.7914620939997263,29.203009014234507,1.6831010415790006
6.828495977210509,0.7987601753466244,29.6790063302601,1.6812722116028749
7.007155783770772,0.8141314758177625,30.2265062138361,1.700414242902189
7.239381605612475,0.8253383971699928,30.696777426239706,1.7130691508568918
7.450034178648254,0.8413003146705506,31.15702551858094,1.732935510172939
7.628855849801445,0.8495405566559009,31.381387695950504,1.7369096668475674
7.684465781711226,0.8575860933097539,31.717965412345755,1.7456622894494438
7.909215612072208,0.8668224627998382,31.892614026388355,1.7569810984790954
8.060104596549756,0.8742341996219414,31.848269036541474,1.754416255976256
8.297840524553068,0.8853937952148933,31.763909282905928,1.755103227744977
8.550937185790513,0.8955359312181546,31.76383241415691,1.7486599086046521
8.842587594404872,0.906472816374519,32.12016769600394,1.7460061623749283
9.124878235733577,0.9272040109899297,31.95408098308327,1.7609488264886346
9.285590011973047,0.9409979082106974,31.78874763445559,1.7603860941953053
9.582115227906412,0.9519976097630264,31.588965430120847,1.754817561091768
9.874224715283654,0.9672911387589712,31.71763988465439,1.7545170638994596
10.06063525057357,0.9797138257835106,31.703292029529482,1.7556864803227032
10.181124334007073,0.9912602961512078,31.50472353293703,1.7590972392301498
10.375284638424748,0.9959351941696383,31.60321862195544,1.7519281356361291
10.625861992784639,1.0049393557630857,31.744471154251062,1.7524141961638247
10.695335363497993,1.0130650241520378,31.488718861218004,1.7515137190041865
10.957666051979233,1.0209022946206463,31.299440482830885,1.7466414020459082
11.221590625682964,1.0231877632232187,31.392376509585553,1.728445701188535
11.513263104674193,1.0367024701834262,31.165845842617586,1.7287071347231733
11.83346579447892,1.0625269728246554,31.097923802234217,1.7448867053998367
11.997979604092524,1.0713439801088016,30.772550952399907,1.7350497942170595
12.201372202171017,1.0848696687686534,30.719407229827816,1.7371578687714444
12.440453132233712,1.0900497837166856,30.447595811908222,1.7255869037959335
12.594883969446483,1.0958767939106897,30.373819581850356,1.7154696608405848
12.856482798601437,1.1066420121427065,30.339050914381566,1.7164152456967416
13.017538290186916,1.1135258331145395,30.09423108188266,1.7092816460594678
13.194517496787691,1.1271553245427908,29.736494638628617,1.710950144638834
13.374368025124989,1.1304928961704492,29.692309274213834,1.6979036747199499
13.637905316096242,1.1430831454390928,29.4669989385995,1.6993523848165473
13.873400586462575,1.149192908870771,29.034172069033964,1.6847041342139273
14.167258434765305,1.163304627445958,28.570266692453817,1.6772890800694884
14.518618831511752,1.1847800852353256,28.222077360607635,1.6774931278168548
14.856542375742883,1.1866607117556298,27.850275180741452,1.6495847143936335
15.098196506645207,1.197097175023207,27.755637381333376,1.6394370103761582
15.101763912251698,1.2040461376441582,27.26828720068405,1.6322111802423482
15.107363869085397,1.210898589140972,26.756570478241194,1.6261483267206125
15.489059212966982,1.2196192870442786,26.291349575890607,1.6150409363301008
15.601908223775283,1.2248801412322818,26.255431832317267,1.599728608909518
15.842288066232284,1.2278176232602993,25.93705960613792,1.5888160101604438
16.04456202071166,1.2426821669370174,25.91859440033152,1.591382201501839
16.328239067243224,1.2492702407554308,25.69843485418231,1.584482534802953
16.443221873542694,1.265580341386435,25.198250577677037,1.5850904823526055
16.643940115808117,1.2670358134895252,25.039293987436274,1.5683678671024377
16.836952336038443,1.2707421652130697,24.48809291587314,1.5534853535155475
17.256303214226012,1.2832113769122926,24.409922776663652,1.5451863632675198
17.473758285867778,1.3063989507723621,24.185328976273823,1.5530377909467066
17.718544905499297,1.3077485139792684,23.666407546950957,1.5331898293315072
17.934323227830852,1.3138245418644243,23.498943326228694,1.5188027232748067
18.187028487994233,1.3168262689469712,23.028813381441427,1.502402675898175
18.296528387308093,1.317306637203434,22.603104381254923,1.481039225936159
18.3007765093282,1.3316396975324343,22.17454306839817,1.479901219408688
18.576429619904037,1.3354033710896605,21.78857367309282,1.4656033578252594
18.698869795956497,1.3425726599327346,21.26902493005563,1.4510508033707168
18.841381247997752,1.34849236282256,20.880689736529757,1.4365741156491003
19.070355016003774,1.356380901037397,20.63514055184864,1.4265687984622588
19.261490685175755,1.3650343869022827,20.18105774314938,1.4161900169153885
19.28948615966891,1.3701415837864044,20.024285914851728,1.4054554709037186
19.537119890670212,1.3729122914952947,19.62195910088311,1.3940551842299145
19.725130399589197,1.3809813720455266,19.061281318781262,1.3791309326104741
19.86991448154569,1.383585692722746,18.564372078225958,1.357107042424433
19.949784309801164,1.380290487403501,18.266302159657588,1.3345242558716597
20.072208537359295,1.404148296532832,17.891299177347378,1.3415040165847398
20.228506873258528,1.393344479240032,17.5580145813481,1.313610616622473
20.529656427956912,1.399097754249807,17.00669967902266,1.2967456828829953
20.586409287452323,1.4151493882854218,16.572183397340005,1.2870305300149587
20.691709104207785,1.416943536985964,16.274938200841007,1.2707852954423124
20.723366772100018,1.4173358590313803,16.077228831224524,1.2583792712069801
21.09336892494414,1.4137570333966716,15.68210770984202,1.2391084428762422
21.340938194502552,1.4257675547086317,15.389755504550605,1.2277501194614133
21.3994724950322,1.443421837152859,14.983542623878249,1.2239931102410428
21.706205061525765,1.4454602633513236,14.624258236292684,1.205515225198904
21.80396612445361,1.4540793138045431,14.328266297250826,1.1932190007607506
22.09672671276072,1.451503668257062,13.869387928894508,1.1709326685212218
22.463947484748697,1.4607810730229567,13.551235418978543,1.1540651383995018
22.53046693920896,1.4623519383549377,13.192161450514668,1.1346499216879766
22.710750601179917,1.4803043744642255,12.765456068418391,1.128791882990973
22.778807340981242,1.4776514238818488,12.50357808323604,1.1080978830574575
22.87281389652712,1.4903634093891118,12.213448118759285,1.1028994535397967
23.11154752124111,1.4922185139785256,11.972454664682822,1.0886461057010441
23.297608645397577,1.5012513146244042,11.55493956162752,1.07620860434745
23.385377599640382,1.5058884593189104,11.273236953013763,1.059976832437032
23.72190749347585,1.5105605973402807,10.978733216040256,1.0451948923148942
23.899358442153662,1.5175852514467756,10.737244645142987,1.031599244702092
23.929038611699866,1.5187601958039556,10.483450892795473,1.0176720367382996
23.872786923809947,1.5149101723262153,10.14162524739782,1.0011263037883054
23.931211810731888,1.52254676415634,9.842219399994127,0.9907724217545969
23.933533301332012,1.5307258224932692,9.554592628400437,0.9807517416540329
24.007213315245373,1.5186161617763385,9.257157255545327,0.9575795582830914
24.20613379518995,1.5243662714847068,8.937505520986939,0.9433835935919763
24.660313019690133,1.5302513022667978,8.713760760786265,0.926957636481099
24.876747807395862,1.5497347209893464,8.441251290113568,0.9191901676647501
24.979853212410546,1.5593614225409378,8.131893794321696,0.9060699259558577
25.44772044484602,1.5672342994816633,7.976318074844668,0.8925288175490794
25.86088203982524,1.5843106962904818,7.695771880450588,0.8827765620006212
25.920503126432585,1.5780286418782992,7.501769277094255,0.8612465023986827
26.112318674777693,1.5975568819206514,7.266504561060841,0.8572460796426491
26.33279958790324,1.592223099364442,7.0607697600096495,0.8383362365276104
26.19952707230456,1.590475834289227,6.941185159945154,0.8261640983375395
26.172518499444447,1.594335478609929,6.698756330431764,0.818826774018569
26.21281395001785,1.594762858826103,6.518073551494926,0.8066296541062653
26.161934278545978,1.5976627940095387,6.395961400990208,0.7983966049815765
26.208270041227202,1.5855711412777835,6.2435259883951835,0.7838498190169173
26.280729152056377,1.5992182836935407,6.025497834154256,0.7788703859076606
26.256239763457607,1.5931411080223508,5.828314483117664,0.7625334922417751
26.192067900590935,1.5871789116469608,5.673450064882559,0.7486130918667058
26.035811070265627,1.5897591730094085,5.562589015214716,0.7421508934741307
26.107787406099995,1.58734372167992,5.424281300682844,0.733541334590314
26.465180699348316,1.5955843594882706,5.230561301962697,0.7243423578770385
26.74469012089709,1.599181414347841,5.044856236322406,0.7092310985265492
26.782699691950167,1.618307353732695,4.936700062201985,0.7046049816370775
26.799296355369304,1.6176073138119993,4.805525696429007,0.6949086071562462
26.910367265139413,1.604834798421775,4.661866050656488,0.6791051706945714
26.87786192427926,1.607883862364571,4.475139588573678,0.6684874270364337
26.868689163863415,1.6164228851224225,4.286081411194124,0.6587055873728344
26.8238505509324,1.6115282477294737,4.1611366128973595,0.644915460756041
27.127856291385825,1.6126492766400495,4.035986426905907,0.6341718937994987
27.351150383363926,1.6285906513352393,3.8620610521842518,0.6263146467443786
27.302111405616305,1.6220676866858963,3.745143242107952,0.6109094272789644
27.11270572922111,1.6218848793379756,3.6136653974460846,0.601828082979822
