$D^a [mM]$,$D^a [mM]$,$I_{islet}^a\ [pg/islet]$,$I_{islet}^a\ [pg/islet]$
0.5189271060309657,0.18535630330625522,3.0395892893704293,0.37177822583361103
0.5679247685305268,0.21912365804421974,4.080127352549931,0.5196533119900398
0.6380919861903495,0.23527930067660954,5.116552963976399,0.6234370045642327
0.7249947011755473,0.2496708542612262,6.075697331940452,0.7015811608848368
0.8216034889127815,0.26715388655091277,7.059876285495891,0.7717066229061434
0.9396757106412832,0.2837639687554811,8.05422116502931,0.8291273669337246
1.0690292051925299,0.30488707033027757,9.055689595350506,0.8909806036427305
1.2072576917241358,0.3241926708560669,9.995162827748219,0.9413455262749648
1.3440359045379888,0.34269744746370756,10.970103020703217,0.9864799515621397
1.4813723847857647,0.3628055099687898,11.92036268398659,1.0369954916099173
1.619038672717308,0.3795763928192046,12.929531668102726,1.0786587710290894
1.7615193755024605,0.3971367400526556,13.844604120607281,1.1224309337478051
1.9054330361419058,0.4145391085992882,14.73658640999497,1.162821387359999
2.0750044756217862,0.43188731345089604,15.517068165595976,1.1979326015137397
2.253955468206706,0.44992628653294153,16.23138610259348,1.2272047121726661
2.427506487990801,0.4699770685602706,17.215670424485847,1.26343490253994
2.611723486471006,0.48796466488307794,17.85960730777712,1.2954249569701648
2.79289734877283,0.5022068735707514,18.5423204726436,1.3118680434398187
2.966829178523561,0.5222601069508788,19.257573136231894,1.3457285543271729
3.1664019877121703,0.5367548989964984,19.99762687680338,1.3655853876490984
3.347915278573241,0.5543452908214482,20.64890601087129,1.3924331196900777
3.553202442240939,0.5724929598098899,21.2823636316825,1.4192805609869141
3.775438242808391,0.5881820564692515,22.25154088589628,1.4407811961217025
3.9795453640825347,0.6048599758933721,22.807215126667845,1.4656477692465821
4.137473017527958,0.6207813490727885,23.229743528765756,1.4860904215933166
4.292464905951223,0.6364633738443313,23.88606276024181,1.5108355607495354
4.539564966778855,0.6490946807333812,24.205102814422375,1.5232981529527756
4.7036475122336885,0.6651271757590025,24.62244435809979,1.5372606301921106
4.873562798672908,0.6817379594216956,25.272109344716046,1.5622490249761287
5.008254635505647,0.6854416933731584,25.559012130679275,1.5605967930259985
5.142633189100117,0.6978960686333503,26.14720788991885,1.5802416002852624
5.355965786673646,0.7116521187169812,26.541755408448353,1.6009534652937716
5.599523791282958,0.7247328116768307,26.914145399347696,1.6095537545661631
5.801191765280335,0.7352946189972267,27.231001040455762,1.6108970111608985
6.09614969737202,0.7560175539313994,27.807127929396987,1.63476188240207
6.287681294218825,0.7717071408297956,28.384525719288828,1.6508749379272036
6.503088596762109,0.7848308914045036,28.771136655795722,1.6658658977217369
6.730447973835084,0.7947064601417972,29.12496512425737,1.6698302917127217
6.8778572835923395,0.804730565985103,29.686311185635283,1.6786048294835232
7.115335640655004,0.8180456513075716,29.965575057243306,1.6957259314911282
7.279425604709414,0.8345248940123717,30.255172770641565,1.7139490335966665
7.5170520228578575,0.8459073025466441,30.468807394306037,1.7213328011218547
7.703345846637321,0.8487098181217008,30.751870096053032,1.7094419671121992
7.918367565055427,0.8692294652551972,30.93034355025279,1.7348094765395146
8.119013799592443,0.8785627130949174,31.46978202149808,1.7392889769710134
8.348661432483278,0.8896047610697889,31.654374562727018,1.748662138688717
8.6307521335528,0.9033079125467718,31.885985215405377,1.7558089257625198
8.895053262454665,0.91751009897723,31.935643385913274,1.7600448694861792
9.038840809827633,0.9296263244037911,32.19120574747869,1.7650594461900138
9.251416129801783,0.9359641347694354,32.542043605222545,1.7667392847794041
9.51284393512611,0.9504498254113564,32.28230508443741,1.7753999103391218
9.837628501748961,0.9621291284283474,32.301341677635385,1.7680056109335516
10.12173534961126,0.9827223735268849,32.0322236425577,1.7752140561530316
10.306603121363217,0.9889105331993117,32.21646340956554,1.7620693586685798
10.703170744011638,1.0092649741978668,32.12202802177133,1.7758650070542787
10.8488742309299,1.0179979120456863,31.995772131715885,1.7647659968660634
11.16629677603412,1.0283644000133896,32.14529312597434,1.7633873040038124
11.39306491635446,1.0372134472335777,32.07437476361717,1.75814065454982
11.68553602132636,1.0500861211420254,31.761926217231636,1.7559004564381162
11.871165934657279,1.0658884761382026,31.704695436611402,1.758067534724518
12.164597147619663,1.0721949091865883,31.494100990073264,1.7472416900062147
12.540104689746684,1.0905272145217275,31.476989899221223,1.7507056693046177
12.687435433307673,1.104957041677934,31.29503441747945,1.7511691726778327
13.02456326263839,1.1095871055884552,30.859379063302875,1.7346164121502226
13.284506565483682,1.1277225803229174,31.076003687314,1.7385924747491805
13.488556384597752,1.1337079825925584,30.833817400388053,1.7313599891938527
13.853802951129135,1.1482008916713713,30.795159017938477,1.7323092765906165
14.031153236855456,1.152125090110812,30.62925446030775,1.7177220688783665
14.45475613019385,1.168144261033984,30.335757854058052,1.7182934967336856
14.659066403089929,1.1821606476191346,30.14061737749567,1.7126713875094073
14.883620031481312,1.2026628641361479,29.794635778137966,1.7214087142530572
15.05877323114853,1.2071697677255704,29.36806081955781,1.7053197078324556
15.330793436451053,1.2035114082139786,29.021863056495622,1.6768331331499753
15.434125726041108,1.2163544790249519,28.710834493234668,1.6739772191798385
15.645928870675545,1.2270359014999332,28.44071987826477,1.6713201747797841
16.004938801929104,1.2311928171664297,28.274746983678693,1.6562289392833447
16.130235572860684,1.2475713760629885,28.094319677650464,1.659615458772951
16.49700327989995,1.2502888137509987,27.710646871361774,1.6434230306150264
16.74751224981317,1.265440595038954,27.176040718592915,1.6355828658398417
16.87104424522024,1.2796862153341033,26.976144013832,1.631924760478643
16.98521652105708,1.2744865537874748,26.75448061739985,1.611711552352719
17.042927288969597,1.2823575466180783,26.261809103750387,1.6073436094402525
17.21045924196083,1.2836618008745757,26.068671748849496,1.5932836639861339
17.363939150808207,1.2963854187784873,26.072444597662148,1.5976988210473697
17.57570476905864,1.3022646957778345,25.651867075696977,1.591293477035845
17.641918147598815,1.3127614103628438,25.364445403899534,1.5868637024751762
17.994814577704723,1.3080569088055891,25.015195730955742,1.562900680981548
18.084499219565114,1.3186648458034433,24.803614501486525,1.5565674880849858
18.361527626082935,1.330262242763821,24.29476105559391,1.5518623523269786
18.59444337000345,1.3421573583841988,23.805970013366537,1.5401242928306362
18.680030840609174,1.3409648313520433,23.537185476865904,1.5184398130505516
18.821491397707845,1.350843984053413,22.80218948330334,1.50974030070193
19.168314850420632,1.3618386201980393,22.494301732094236,1.4959066649461596
19.339453046847602,1.3628272820202165,22.150385450596648,1.4751470740146848
19.51743538980671,1.3707370885551897,22.020321109249828,1.4678637786952977
19.691269277074767,1.368827031368518,21.696867402088408,1.451743784445306
19.861487913510402,1.3808857728823458,21.381466279280314,1.4479420323675403
20.112143751286517,1.3892894391706319,21.00104468835481,1.437963280717937
20.231852933344644,1.3947580470159902,20.573389997252402,1.423350943027706
20.45018323972718,1.407016670480906,20.27336065445862,1.4170792358167024
20.608327653754124,1.4084706007827048,20.10775738040699,1.4030234908401273
20.851827782492077,1.415964342209186,19.817462203464334,1.395979834305105
21.177180332282596,1.4277372353276516,19.315484420571348,1.3858359298914549
21.183617282256268,1.4367182568054508,19.091802655041395,1.3748797299760696
21.464868649363456,1.4333078950421272,18.744206754444246,1.3565958535254652
21.55072120074585,1.4511397239145465,18.196433069361117,1.3525137983774536
21.792164914103278,1.4473088711897177,17.88906357340905,1.3279578328138804
21.88038221235337,1.4504645288931006,17.490075576259322,1.3124204883865807
22.117748766789383,1.4619992263181014,17.241546968584082,1.305666600521924
22.17967151398424,1.4630282349862216,16.866061581710504,1.2902597533955455
22.40775222739227,1.469532754897973,16.297185038786743,1.2751939398932544
22.550567460226112,1.4719857025382743,16.18160207558306,1.2577790736814147
22.59796880605256,1.4771561425711122,15.84050981798919,1.249807718838315
22.855780212930718,1.4818449416512984,15.420272116896038,1.2359588269676012
22.977458170466686,1.4933503878299026,15.278724374060987,1.2285130990407258
23.23490222722551,1.4884392998988665,14.927650818789397,1.2096968451735628
23.223698133319264,1.4990226190305522,14.80107416125655,1.20476414028947
23.536215747633527,1.5013624471534632,14.648641527483534,1.1967634265309575
23.795352182454355,1.5139804229038822,14.326805337426936,1.1910656271565219
23.806497914326393,1.5259628765016326,14.024546104261034,1.1839518969028553
24.0750995242243,1.5217802805513425,13.762895342708276,1.165466223660112
24.285334278577626,1.5348500438615922,13.532619000587875,1.1593508959392915
24.59985786400437,1.5460662562819198,13.3140391818568,1.1519827721298863
24.602846938519225,1.5494620541984379,12.944421623440013,1.1381690466766816
24.632194656737287,1.5509422272331397,12.62413390488689,1.1237074007550147
24.55768934300625,1.5461026545260086,12.45036777526511,1.1089103622583205
24.575421733728746,1.5446892996593466,12.3129782480884,1.100925476920269
24.424803628684,1.5410657764093774,12.065955627787568,1.0913812643387122
24.658405706646267,1.5479083876272428,11.952184303679836,1.0875948976096212
24.75908288865628,1.5473355588838158,11.629701013213872,1.0745770973257172
24.903764297209946,1.5464175738331205,11.31589759589764,1.0574638213172423
25.204002764685278,1.5545855107177533,11.078099297565222,1.0457196263600854
25.239737651863756,1.5570301746272475,10.824842282436393,1.031906783080556
25.76977486947971,1.5620781170238687,10.564419907486512,1.0180844568497116
25.849643121254317,1.5748397484483883,10.371527221533873,1.0090645697427527
26.43975725274382,1.5854956020779467,10.232453506543465,1.0011322739115627
26.536830224632908,1.6055398270260255,10.133991649290712,1.0006171150703844
26.66424406321097,1.598964214842957,9.944160383201284,0.9869613303944944
26.855077334843145,1.6092231983146366,9.728608237803236,0.9808995315595612
27.080791118625573,1.6144185267065467,9.480553445413118,0.9691489679800142
27.165151367214012,1.6210179913389686,9.371262093437926,0.960568312411006
27.414417779476402,1.6207276108112947,9.206570852714854,0.9502578316613142
27.783419033847274,1.630081487070211,9.09865405507254,0.9436383613395594
27.762712055112885,1.6348968600699054,9.067955071632877,0.9387195630430515
28.11497796418249,1.6498153106088789,8.963321211341402,0.9410745995876819
27.965957780913598,1.6529285118382515,8.824888190581463,0.9348848361742831
28.082340375017335,1.6437017023530769,8.709418668080568,0.9231644018042539
28.258207438002646,1.64098890853201,8.58814582526623,0.9133607808591803
28.379106779704923,1.6489713621958406,8.50901473309483,0.909889419181937
28.563571419443576,1.6599153349976978,8.495370464202853,0.9104377962995065
28.71738345428722,1.6571751382988102,8.47526942794469,0.9050339510069593
29.177089292298895,1.6671696437048198,8.41084139148418,0.9039635452483562
29.221588242885645,1.6834765778008411,8.387628868583166,0.9062534194281816
29.363004559055703,1.6823984749027965,8.49875671288403,0.9053005723875954
29.39003598375624,1.6905023384428801,8.544532959935182,0.9120904905426039
29.377904330147125,1.6842718140777981,8.511852013229234,0.9094205395926153
29.531941296477985,1.6881551754813544,8.494638263351833,0.9095083177856336
29.510360398169954,1.686087841656571,8.640578326298952,0.9098520685959686
29.585150916311083,1.683390427403451,8.68957886066819,0.912867044858368
29.571424258016577,1.689992583038808,8.736691015404025,0.9187908358418919
