$D^a [mM]$,$D^a [mM]$,$I_{islet}^a\ [pg/islet]$,$I_{islet}^a\ [pg/islet]$
0.5180715531661464,0.23358218811703266,3.037597170046532,0.46774074077576583
0.5655039030122745,0.28222056583147004,4.065239413196628,0.6681651575781137
0.6361656542433352,0.3032928698450076,5.108614742935412,0.8036815733317383
0.7259573289133711,0.3226845013521773,6.117395773042935,0.9077171948497981
0.828046696065369,0.34497701803413366,7.108299108252393,0.9976874497729824
0.944824551228301,0.3695381814088643,8.097879792614199,1.0797898469142275
1.057743939089349,0.39309576308889876,9.102879292551851,1.152226193591488
1.1772920190219747,0.4129774164586592,10.096050499286394,1.2123321719569449
1.3063548699686482,0.43668838374466307,11.03745776933806,1.2781945197909492
1.4520005116058827,0.4619240983642615,11.926253557634867,1.3399276018386093
1.596442651058034,0.4897606046575273,12.78988587159233,1.4028874186398477
1.7506418451832588,0.5128560926797122,13.61988697236664,1.4495776800303362
1.919780016772875,0.5339772396703452,14.372436799001784,1.4849947985125291
2.0882220147084842,0.5565429034332416,15.309408890645805,1.5238974560487188
2.26850076200118,0.5842969425094602,16.13873057651707,1.5793624609292758
2.4386133584790017,0.6058737593946553,17.157870665665676,1.6195246252710638
2.6023071349486364,0.6269199737246102,17.817642424327133,1.6601159102670606
2.7746124987849883,0.6528394123896645,18.490494783463465,1.7065236503263852
2.9632540900770294,0.6724264038924211,19.15813837060941,1.7329687916333953
3.143629830864459,0.6972990042268874,19.914269011970138,1.7736039362050984
3.357028048757222,0.720465128431262,20.410494460496885,1.8060411731639314
3.5586473102996465,0.7376396431693353,21.108341082997597,1.818551752594672
3.739952994093951,0.7588900862789971,21.62311528879926,1.846499918834764
3.9370644891623936,0.7787568182339996,22.13335523176129,1.8696243374859516
4.158683369179603,0.800002731441101,22.62842995087294,1.8923690339847903
4.331550705102292,0.8172820105972356,23.277065033157147,1.9095394375967336
4.489349592611017,0.8321283493836549,23.915312955231173,1.9316483958744015
4.6744418854219685,0.8545652137153352,24.549514089949106,1.9724756429449368
4.91199251632367,0.8698527277607824,24.99939737614459,1.9874506422692153
5.14020478361697,0.8942494515251053,25.452528342379367,2.0145895374530407
5.410341740776276,0.9158654948839258,25.39180327933663,2.025176356756302
5.611468914684488,0.9362817650297004,25.777981936749438,2.029943828389262
5.779641723192674,0.9537633471254776,26.118185666724976,2.044984983174351
6.015740620448988,0.9714754448283601,26.619755746386925,2.0631809137510895
6.141014458600428,0.987395756413407,26.76025104765221,2.077818021093252
6.311681471219452,0.995499170782468,26.736343167540394,2.0731926765176136
6.469070147775142,1.006767786968104,26.938708496453362,2.0727192930164877
6.703266799975918,1.021730255402955,27.376867177291,2.0836018546097543
6.8823804026742454,1.0417306467228118,27.481534129504706,2.102847935099386
7.046269386820342,1.0521865719447807,27.601877228240355,2.1017367340794024
7.278346374059551,1.0674169677065066,27.716818404444776,2.1078637560993783
7.518458705411359,1.0914145704904914,27.892875489490166,2.126744258006
7.7222573423148875,1.1030619870565763,28.021984072594275,2.1229738406876013
7.950644247248335,1.1243945495526848,27.975834350512358,2.1364247772509875
8.269460265003097,1.134171272429614,28.226248319224258,2.1226957855607114
8.49570676124337,1.1540820646856103,28.09936949591845,2.127280250865181
8.693937877382256,1.1712032226003797,28.21957613032216,2.13023068829482
8.953627124388658,1.1909549557575014,28.262197386190113,2.1409612609324005
9.181092302225226,1.2010589738925455,28.36977978666265,2.1324820438821273
9.354628728808281,1.2159163337764427,28.419043866999157,2.13724583133477
9.541452808485078,1.2248836248019757,28.456058314658485,2.133712595677442
9.656943766162467,1.2352786549289818,28.205764311580094,2.1311924876356985
9.901744610575458,1.2565407162549522,28.26755339673001,2.1448063283699637
10.195971094768632,1.2666184456340468,28.266797012562154,2.1349458256294134
10.46770088737394,1.2871221265995734,28.213457071377587,2.1391589238235973
10.645236031845542,1.2949806286291077,28.064237198394103,2.1244896555866086
10.867262697140564,1.3112423235752122,27.98280732865855,2.1263790058681207
11.153972876789563,1.320652648255987,27.930437808965458,2.114772962264896
11.355726572230221,1.353924105118945,28.160003097404427,2.1459656524435715
11.408878581460135,1.3521296658858817,28.172710214170774,2.1329821548450743
11.493746575161707,1.3574580667500356,27.960577908873763,2.1319082822640816
11.63154878872354,1.365630818546787,27.845938105741563,2.1293155287069396
11.9676806374586,1.3827676500121593,27.72171769118659,2.132210691302629
12.21914565335327,1.392751112106303,27.439060608602023,2.114878850187845
12.460745503548683,1.4020155757744617,26.92822606241889,2.093385184662906
12.62704849353448,1.416771299075164,26.900338311534757,2.085414440908229
12.833231931200485,1.4370684998631262,26.830883463510947,2.0962275270733177
13.066662110691215,1.4411271310030374,26.645291742675784,2.080125700604532
13.294061898675357,1.4534775527944945,26.41495114522351,2.0722121600839043
13.56929509110742,1.4706783540092825,26.32228206074538,2.070658390619902
13.555518570764221,1.481878598206316,26.044804669390356,2.0671506982814827
13.723021753219736,1.4861263652246683,25.975738615795702,2.059542051048719
13.638036723357763,1.4790865443781447,25.57610320671774,2.0369685206302046
13.796959197505002,1.4892196854343582,25.282702554222627,2.0357053456200296
13.968779891960626,1.5022027518252015,25.081974245585148,2.032099260945917
14.18789956431268,1.5072819678912395,24.959422881764542,2.018162629277176
14.500034560409661,1.52122190580835,24.70487651488529,2.011767095613717
14.717538877552842,1.52335212443259,24.41025025598475,1.9855182351751137
14.81381746631606,1.5423711305744578,23.93457706124838,1.983573047444263
15.141783839249644,1.5413016533712698,23.643117320036453,1.9531807011380886
15.3359532450991,1.5661806918435224,23.41817403315411,1.956393481763457
15.539879763844265,1.573610888230424,23.249672534452753,1.9435017570811952
15.808411322557047,1.5846627328403116,23.040639086533815,1.9349123719348182
16.08641767700742,1.60247503478752,22.681228982379835,1.929216110627039
16.33971389717015,1.609269013599958,22.541068958164658,1.9103206118653748
16.494656224154298,1.6267260698195558,22.15770571582168,1.9074986983641404
16.71683960321076,1.643706085305326,21.79604973614588,1.901118375848334
17.03157443561762,1.6471521196513386,21.51109433715647,1.8763715978107733
17.194997326955313,1.6645089107518403,21.22683894960225,1.8697584077329303
17.458194630124986,1.6740893996218689,21.000533763442554,1.8573504793021662
17.75823827920145,1.6803003431673114,20.77629104939752,1.839677731062709
17.713046365346937,1.6876427789203954,20.55630290452116,1.8293017885377258
18.095128676189084,1.694891491336515,20.436404700302653,1.8214945410632495
18.201105632078644,1.7012264918353386,20.12835456870679,1.8071046902549575
18.417066865551377,1.7129929104383,19.81088860083242,1.7980271885801287
18.573908698007045,1.7181585410264348,19.423217411564224,1.778942876023259
18.87462984248124,1.7425589327596842,19.206913334931524,1.7794658369523424
19.09649843178894,1.7473888611121078,18.802975792921465,1.7581750086033374
19.287909035328017,1.7505453625299803,18.27381831076639,1.7312016927227667
19.25318673835824,1.7632992017280935,17.972157886615776,1.7188415722845583
19.435761358881045,1.7566313211581708,17.5256677339827,1.6915317735610347
19.730541371248613,1.777515147921288,17.077904297935262,1.6816643169054022
20.02682821771136,1.7862561878048944,16.654277986359617,1.6565670501576448
20.259936858934964,1.8048418125599857,16.493733865867352,1.646642598397977
20.645138394595225,1.8076142774507857,16.277149277942268,1.6269531415821659
20.727015617319086,1.8201778540391316,16.034942865014713,1.6169106821042962
20.70777361561171,1.8232950719349355,15.728808641123779,1.603764795878721
20.839827183716725,1.8323131629724096,15.286048332252559,1.5918235313942304
20.940193540585053,1.8327935873388221,14.940749755319608,1.567991029794336
21.25385014704224,1.8505508087400206,14.597585347685092,1.5580703308714445
21.339181055240417,1.85666440030379,14.224196825200274,1.5368139967155632
21.626936573328187,1.8606680434416625,13.823351594811971,1.513277672787589
21.90661378104628,1.8699261926985524,13.596791085916983,1.4936095539915824
22.211999977734944,1.8962859271390422,13.283770346474318,1.4897268040345826
22.35663216735967,1.893070350775269,13.012921257327733,1.4630174753646605
22.604009435339147,1.9139298985665203,12.667087770982103,1.4556990532935357
22.92561612421592,1.9139556037022503,12.320410919798173,1.4277726067094951
23.064597003122184,1.926816878754066,11.90935910549936,1.4085238999524639
23.252553410591826,1.9275981477248434,11.677729810574144,1.3843828601021264
23.1414475564989,1.9384947088883027,11.3397267429644,1.3732965595749753
23.414282441791542,1.9259004363572276,11.055720507824432,1.3440706838330296
23.687593296479797,1.9357203910906629,10.815626979853073,1.3277937394882386
23.823450641355777,1.9563908277750777,10.594175166377418,1.3214728650466154
24.016285587151213,1.9484341899648803,10.387881769859643,1.2980532423416347
24.21141036613125,1.970585091439985,10.04618447604695,1.2913930705029606
24.02912477407081,1.9713170662273922,9.703463253522564,1.2696716344598749
24.164271271072767,1.9830779890863885,9.388791852758375,1.2566401606932194
24.506570830648247,1.9848356212563818,9.094499930289729,1.2324331339472023
24.830263726354193,2.00036179089646,8.949893204362773,1.2183405293398595
24.97321881633834,2.0047236975031755,8.732879652052253,1.2022917845053938
25.116264252544553,2.010457252471124,8.465935497508413,1.1860745685782406
25.375194298317325,2.0233706257523174,8.256857045101343,1.1726516093773345
25.462646844064377,2.030091606785937,8.024250334413704,1.1567190277207564
25.443241317550026,2.0291305527981445,7.845329085298025,1.1399693385021084
25.416089505773204,2.0335447444400128,7.722964073802641,1.1313440028118906
25.54220401725558,2.019083151502245,7.558920020300343,1.11203124702642
25.51983506670026,2.0254369113740527,7.359086295215045,1.1016163633217404
25.583143862010004,2.0326691487642785,7.186434522917457,1.0913836950259213
25.934418546041258,2.037747959605692,7.0087991268478484,1.0771556222785588
25.844582085217937,2.045281650450434,6.8069184133193446,1.0638643327315735
25.826413860050128,2.0454470941460303,6.648092288470502,1.0504528775371242
25.843645971586863,2.0370604732352295,6.419246890928822,1.0315104320572377
25.66413915783408,2.0329125802307653,6.215281068680977,1.0140591819728455
25.78419330069351,2.043855213906655,6.041061184356546,1.0048331051951758
25.683899556699387,2.032943994956536,5.922904618029024,0.9867266600883362
25.887838742288192,2.0409988426753736,5.693351201406727,0.9761294544933468
25.997461499603876,2.0386806870662975,5.448576972949984,0.9532830476461396
26.3808117916483,2.065084300838539,5.2722544393204505,0.9429931854528275
26.649940530475526,2.0701409428071544,5.120864280207903,0.9244957684684177
26.498343500114128,2.069550412438818,4.958488743189183,0.9083967933491485
26.430732714683423,2.062591756646079,4.816246002235144,0.8930614932285145
26.74342858434646,2.070089423572899,4.668807799186262,0.8815305020367736
26.81666573226571,2.0793088148828387,4.546702881914478,0.8697555083147729
27.152927758814098,2.104977824107001,4.388100934053869,0.8640697955189818
27.157901783030113,2.094931359586916,4.246266296164059,0.8426781279509292
27.384784162488366,2.1042511751258903,4.111720783696317,0.8309383504439837
27.43134743829165,2.1010398857653407,3.9943550069536213,0.8148980638042567
27.267176816816,2.0963260285777947,3.919287625760583,0.8034382420952844
27.358269406956115,2.094208900666633,3.787349021593251,0.7929804331958944
27.271992109956006,2.0886618974739037,3.6351297775515166,0.7770515498351567
