$D^a [mM]$,$D^a [mM]$,$I_{islet}^a\ [pg/islet]$,$I_{islet}^a\ [pg/islet]$
0.5184929578213201,0.11667711383350661,3.0323886878651787,0.23661483875753203
0.5666547787005208,0.12792279710415297,4.057785377778288,0.3044161533105748
0.6383368580847562,0.13655891981740126,5.077123491270213,0.3614229391728685
0.7302930408005908,0.14502078646445157,6.09537154886405,0.4062853987000333
0.8254286500476786,0.154547736654648,7.09312028958181,0.4457816220058435
0.935857862194288,0.16424920303865823,8.091214715214813,0.4806526437765996
1.0467313068102406,0.17420706090384686,9.049925052287463,0.5122855466103742
1.1808902365148246,0.18550548712449497,10.071069589938409,0.5448552746444295
1.320338290870874,0.1952619002603813,10.95959204794185,0.5689104582294334
1.4589349409859769,0.2068285628530058,11.938618345880133,0.5965592882177844
1.617504393266394,0.21889231256963884,12.798064982769604,0.6244120395160621
1.7622786413622356,0.22940116253356638,13.685533348804213,0.6458979464380588
1.9333476355035357,0.23959470233866903,14.553954986581498,0.6663317599643837
2.106855243465872,0.25069299062243694,15.410348084132345,0.6870710128121698
2.2764688118477103,0.26106560901381043,16.193859821241926,0.7053713813364154
2.4497469850113425,0.27082180842062464,17.238770682460437,0.7238401695053048
2.659943052341343,0.2837613212178611,17.97051713722505,0.7495419343690084
2.8094837889191533,0.29352921551722255,18.729078262988054,0.7646089535572705
2.954220478137316,0.30139111165159055,19.52528125461265,0.7796290616413676
3.1431376758166545,0.30984441523264694,20.088257877799293,0.7940228467964021
3.318830875158477,0.32012396479006205,20.79598166149575,0.8096559233407482
3.5402725047743058,0.3302656615061113,21.36892679235803,0.8239218820984314
3.706733289581073,0.338877189787483,21.986953037541145,0.8334485322300619
3.894758298201636,0.3476998956407129,22.79541975801445,0.84758293613061
4.076147262108565,0.3547394402119564,23.371078121359393,0.8575732739214018
4.253071231525729,0.3647538519161822,23.952743531176207,0.8734646056381332
4.4525960052668765,0.37251107150950724,24.499265645219015,0.8830780879858645
4.659313532362417,0.38158362006022056,24.9235854546466,0.8935130313143158
4.850373336803383,0.3872984914555243,25.64327820744337,0.8971419049780869
5.036805253585897,0.3962530020476623,26.023660021436093,0.9099677303384054
5.173400148288366,0.4029624512036737,26.465691089495273,0.917422184960228
5.413606198227379,0.41245920198484165,26.947931086154664,0.9307813284287336
5.604709338875842,0.4204232962082022,27.427272458564094,0.938338743984517
5.900790200481225,0.4289813301184713,27.89529060244273,0.9457709659449761
6.12739764858472,0.4378633641222269,28.094987455283754,0.9503027857445305
6.336462733918082,0.4454290364706589,28.618972078880407,0.9547172208438066
6.551646524445353,0.45432861902025534,29.071105339780328,0.9652797140075725
6.679097976180171,0.4575543556220861,29.408233617523315,0.9654349056143743
6.8710600936837345,0.4643860801233412,29.711885822402436,0.9737079327025228
7.051374751719221,0.4718073865295038,30.009770135228223,0.981157956938631
7.364439341861798,0.4788044437022907,30.0583590499573,0.9829249330796176
7.59029087555441,0.4872672331081734,30.471537385151738,0.9853887452199772
7.8157979080802855,0.4982210876023679,30.664009585533915,0.9971152300809256
8.002039251741854,0.5042002458295257,30.668127092023,0.9975876695511813
8.175054422354322,0.5105747905884513,30.787548490412057,0.9995661532595445
8.46085379703293,0.5141875514273062,30.992094776697595,0.9956028813739217
8.66103922762542,0.5233497334554149,31.127539865592254,1.0015506099583937
8.922455724507222,0.5317941011815938,30.97618330178694,1.004784650363437
9.18873121792072,0.5387021168158556,31.439532794657865,1.0046926407571255
9.467301283842371,0.5429155411158112,31.87754431268092,1.0040849732783497
9.615871195388909,0.5536162246404348,31.913488384536077,1.0160753856659954
9.820847785452639,0.5592607849574585,32.03639988035006,1.0183617334487147
10.032217620681164,0.5658279337656394,32.12835404433404,1.0213784380633852
10.298439867181537,0.5724816444074187,32.31410198711811,1.023571451785485
10.536896751221681,0.5776354922132536,32.27556027113175,1.021705209022215
10.827643140985572,0.5807546777804732,32.76290099264994,1.0173458706059058
11.080887186185715,0.5908949107668373,32.7287685445087,1.0260247121310175
11.32005743485525,0.6001160252058426,33.02265526921668,1.0322441012344663
11.540306339717096,0.6067830271023354,32.955201582483,1.035068685984964
11.800527483209624,0.612262664131495,32.82428389236159,1.0326996663147978
12.00321278459357,0.6172692504250936,32.95024637983668,1.030352319890081
12.226804537135585,0.6239355148319232,32.836672373317846,1.0323809498318448
12.40573128806837,0.6301133752505091,32.642249056568296,1.0318801321406974
12.729666958853143,0.6330929924756405,32.48585125567327,1.0241527663471317
12.915020146466018,0.6406613456194555,32.40247108985104,1.02379727211151
13.255020529693263,0.6494701894689306,32.3128154353278,1.026229175851336
13.486082995418474,0.6563381584517939,32.2360712045926,1.0245029174691203
13.62412365902679,0.6610925814858717,31.942425027413694,1.0215276960698811
13.739570489379865,0.6639774985762336,31.688730645502247,1.0165971519932275
14.039501845555167,0.6696019747841546,31.66192632925392,1.0155191855494774
14.239040594880125,0.6721142765540637,31.47237533697044,1.008673613440631
14.405976327732423,0.6776424440203338,31.38161346837402,1.0077753777366956
14.507110183833293,0.67567965681932,31.13130594555293,0.997239039354739
14.748418413991482,0.6830995432969269,31.023847451736977,0.9997000931025157
14.93923798287789,0.6873217740516401,31.072864244614937,0.9977085947095262
15.086803948391841,0.6941736070022336,30.494010449369696,0.9984154846428133
15.30228615399131,0.6961051636321332,30.323194505390568,0.9892727459280752
15.625009569520376,0.7048888001318822,30.198317413237945,0.9906619087751799
15.783070046529492,0.7108652235452927,30.116830549118895,0.9891017384723172
15.992903231300282,0.7138402890046174,29.58854215493243,0.9830304872086997
15.996931530934049,0.7222692433303295,29.596823742363096,0.9858364809983223
16.2299938926052,0.7206936327775585,29.23993457194954,0.9774869902227827
16.232256485763166,0.7252817746970285,29.03599886045142,0.9753589998950354
16.284126202084796,0.7277273263684133,28.513762198991724,0.9718307754511377
16.43679598401527,0.7269365259913533,27.928240221776438,0.9593595811518562
16.742945702292115,0.734865425516723,27.70116111897361,0.9564457390830018
17.12169055379649,0.7350379681673549,27.671710200132754,0.9444875849738706
17.434506757758943,0.7429497608657455,27.468311875148363,0.9430727563065048
17.725517395165422,0.755176518991655,27.673874596639372,0.9494582457212875
18.008035784061025,0.7569311402589068,27.305169811753725,0.9429992516140508
18.120136231318494,0.7625640141615867,27.146078030623176,0.9401195950201126
18.380595232618212,0.770882719882639,26.57977183591895,0.939863385773697
18.61776827969655,0.7741532451844939,26.235250008633088,0.9298202236382523
18.92616757184679,0.7783316571669773,25.958467596432698,0.9223645124738266
18.871003522040056,0.7795304812487308,25.53905651172426,0.9137384854597369
18.982513886327002,0.7838101964199246,25.0532007283265,0.910085754762548
18.97417092170291,0.7833344557337143,24.618106043847657,0.8999621877454907
19.02747168480285,0.7872788512111144,24.210397716159637,0.8961545275401561
19.066105206780147,0.7851021815368489,23.727369128911555,0.8845648479879957
19.45909202847226,0.7897388662932084,23.154623320712673,0.8763404784698341
19.556246430214006,0.7939188033227454,22.717185458452036,0.8657905917127787
19.78819574038453,0.7932871016889924,22.270358346050457,0.8528221493159737
19.73114351046324,0.8022779641307157,21.82611072672077,0.8515289446811175
19.832214352839564,0.7984271646769112,21.588101002509482,0.8398195273131619
19.98957793340543,0.7953015372608185,21.370295137995885,0.8294261404007921
20.0155537461551,0.8021167505338409,21.038996290255835,0.8293208925280017
20.23952436888537,0.8047808252068126,20.688927719419258,0.8232493781242256
20.373552477836224,0.8053808870961923,20.398595422367542,0.8139493239748523
20.388504854840736,0.8120565714483451,19.991483668103935,0.8120620977134566
20.367637166656344,0.8141813938812715,19.63791163707246,0.8062973409128065
20.487976943585924,0.8134737901281441,19.29053470260359,0.7976531310885312
20.518271467769598,0.8150293511706315,18.98317947157505,0.7909310594753906
20.68631284506614,0.81326857844281,18.656232632062057,0.7809338338140324
20.967846482282155,0.8212640543647677,18.56485678865237,0.7799638225320616
21.11230585337028,0.8262982694672237,18.15391925714595,0.7757367540704883
21.26515858232393,0.8280609907631403,17.813442473265926,0.7668747622647456
21.416255662346337,0.8252780254761621,17.646423779772604,0.7557577018230393
21.25817241353972,0.8280657054522608,17.14114578147522,0.75104002703315
21.350628062396414,0.8319598461419585,16.869555567458406,0.7467838265908695
21.69713955233311,0.8317104422565611,16.652463067341518,0.7377293518309518
21.994941866313997,0.8391925222694229,16.498344272664237,0.7347892974919733
22.09120822347374,0.8413617668555561,16.295691422852745,0.7290154608521937
22.042966425920334,0.8501172764796964,15.930617904174229,0.729731724718945
22.27206328544658,0.849402639786562,15.443409793437338,0.7188669022285109
22.258761842835888,0.8527565499691436,15.02407176024541,0.7095964476772345
22.463418378237026,0.8550362975042392,14.728862403784138,0.7013366133897337
22.58827681372649,0.8551670804375929,14.413115659748213,0.6915986578195393
23.103850335116565,0.8602128709621386,14.142649237086282,0.6843560095188111
23.388342874853876,0.8689039631068726,13.820243239691159,0.6783309010775624
23.732757786448254,0.8703273868070367,13.650510791146958,0.6684507668028936
23.92319220315169,0.8714188557377317,13.379610857053342,0.6599470332308776
24.153787005876026,0.8794393299291118,13.096633590239936,0.6564122259888175
24.45248607387109,0.8863624778078413,12.634132203401908,0.6493182534722233
24.73802227068463,0.8836933339892478,12.253018595300004,0.6330962967672188
24.85330407758605,0.9015513897563416,12.073121041611868,0.6351760997882177
25.41484623218364,0.9054034637277468,11.789786369634324,0.6277647372568927
25.742812777412098,0.9074873107271311,11.649005845241605,0.618021626937425
25.516828069848575,0.9061750936270854,11.332654391653797,0.6098313330759336
25.577645278584196,0.9074153359638044,11.048546284939635,0.6037096743200764
25.696983314571465,0.908933401703625,10.854659284705297,0.5972209450712601
25.72091372901909,0.9164198317641536,10.556619935974991,0.5946265130981736
25.779074577343586,0.9158657655728417,10.178860397295736,0.5848108121372918
25.888462410419415,0.9145767247616248,9.982486179939237,0.574723672218842
26.16115964169214,0.9193123187667116,9.753314641372924,0.569464978441963
26.20351519725252,0.919636478437286,9.527316803936088,0.5613073167081772
26.483247742426794,0.9219293699745222,9.391145808883874,0.5555088745626716
26.574009381997413,0.9251147580531414,9.171172459050023,0.5502728758213745
26.377878969836626,0.9219493047013883,9.047469912781708,0.5433012456224012
26.718240384561945,0.9250606866866237,8.855416610770956,0.5399789502022027
26.87657032149716,0.9299980449813161,8.70606935559743,0.5353979501245477
27.054329551012938,0.9253767183823005,8.575279863641569,0.5266114523469375
27.32957848692498,0.930247576148561,8.460526665451463,0.523413758410959
27.78218281804039,0.9397336656841215,8.370201795417046,0.5221671166707039
28.046751305435546,0.9475310469889002,8.258053604659374,0.5198963659000964
27.924115145187333,0.9531512517113814,8.252647236942488,0.5196973072401112
28.108376600431153,0.9478336788091017,8.121941036991013,0.5144262727076931
27.988326402408948,0.9466293783875679,8.056017518898045,0.5104260117889473
27.967535226134338,0.9529881573385874,8.026693219344983,0.512619073501401
27.850188985332053,0.9498644279411439,7.9692863022977125,0.5101645314840514
28.379883308959997,0.9547140040073234,7.867271379259773,0.5089973769439131
