$D^a [mM]$,$D^a [mM]$,$I_{islet}^a\ [pg/islet]$,$I_{islet}^a\ [pg/islet]$
0.517842170245976,0.19899402603840843,3.036277608997035,0.39888513996666575
0.5654382229763721,0.2373393571649534,4.0821888216395426,0.5630506503769028
0.6304280847402306,0.25407967054296077,5.171407236625672,0.6770470361636047
0.7135996667485999,0.26964423983524194,6.236329421864811,0.7686218522232589
0.8114664586908205,0.28622366352786716,7.3008477946239205,0.8444590905239204
0.9162283508480003,0.30333942215955584,8.266307142288001,0.9082369350579849
1.0520716466334765,0.3236687840618082,9.189191273185326,0.9669591339307759
1.184751456510738,0.34592041016798464,10.155606543918882,1.022193369993566
1.3252276073399276,0.36789478518509433,11.090614025838782,1.0759638824968731
1.4667272656259065,0.3881551630813307,12.041201222023503,1.1231361113357778
1.6199018536842427,0.40929690628894905,12.997230075608211,1.1720920025179369
1.7770728210163538,0.42984061181114563,13.844829081567223,1.2157353176303258
1.9564658254062253,0.4484364366794153,14.545719617713646,1.2460753839330732
2.1147854509877555,0.4724230038296905,15.368499887704576,1.2893363070494872
2.2658525170523705,0.4926531416624963,16.274969308479527,1.3305675332100393
2.466667088361511,0.5103995282368642,16.891123729188525,1.3602384890207506
2.6524444242453566,0.5313656451618607,17.59337019829382,1.3890044017099334
2.8132155101623937,0.5507465137539364,18.13546825696486,1.4170396669618153
3.0100375293966386,0.5694677136117595,18.930599644427712,1.4448801306898005
3.1754818085616345,0.581704046236349,19.703835008584296,1.460525743829872
3.3644461350222645,0.5992475318294425,20.45106878604364,1.4916577035416698
3.531423485184476,0.6148017453610688,21.246685938391753,1.518056289142142
3.711804049938123,0.6288753516112416,21.79182670123521,1.5400832798648931
3.9259184910331335,0.6495723774350787,22.547716350932934,1.5730111649384426
4.121242635745701,0.6690799732357596,23.05657088014117,1.6012831073532654
4.287140583492481,0.6831589707312231,23.796648408186954,1.6193589607969208
4.486981788488765,0.6961509388294579,24.31719997763044,1.6374047081696028
4.6599734717988905,0.7115822321389615,25.018362546521875,1.659418237772426
4.855378983407407,0.7329978764356632,25.442415185350942,1.6956436733436238
5.050677549719208,0.7427675216555764,25.529048126385327,1.6947339798107295
5.292780291740301,0.7615976396941129,26.039473588590333,1.7104614101023805
5.539743845124095,0.7786374415609912,26.611812628534796,1.7256231785165201
5.814985430652819,0.7907135389944845,26.95217765402015,1.7273096589115677
6.044046913946198,0.8125373223559232,27.243533564710866,1.7471507981420136
6.202361286839246,0.8232391594847278,27.625726207296896,1.7502595936931424
6.41044634295025,0.8382210400018386,27.988853808927097,1.767505502540533
6.597548551881513,0.853617989831219,28.69396120743404,1.7878425667615538
6.7958092684428255,0.8620540132528304,28.870097089533388,1.7942013807424255
7.054750743168988,0.8783671628257949,29.009392890295782,1.805176441146766
7.257105327721119,0.8973182346531831,29.659393088253413,1.8241916005422028
7.481411038759616,0.9027634277246127,29.53204075782279,1.8178324090612337
7.7180151216558,0.9225531360878448,29.92169787139659,1.8334439167440215
7.905703846287194,0.9306786286270573,30.187090619873764,1.832975102631152
8.122563077124035,0.9476184219207539,30.110777866162568,1.8468824972737505
8.314052532661002,0.9611751906598408,30.386974571882444,1.8521470376669495
8.551595429482255,0.9686691190932899,30.492805915513642,1.8485746358357273
8.703631252662346,0.9866888233847728,30.540216457874877,1.8637060301514494
8.954741876911283,0.9910659484723673,30.93306323563327,1.8563390558231507
9.151875441860781,1.0063979074024696,31.016457491719173,1.8691646969503681
9.29044376974091,1.0122194547685703,31.10563892825783,1.864764868546236
9.522603383549226,1.027098159030172,31.177859815867834,1.8765595421112902
9.704318924693833,1.0366732719430756,30.869701383572263,1.8715622109780843
9.945863146541843,1.0475040683165044,31.025527731050072,1.8678543729874564
10.173787045574757,1.0699156136310013,30.600692785464478,1.8828053111422378
10.441283307122749,1.0749462989126197,30.76448979681014,1.8640593010965116
10.596886715797154,1.086395072736379,30.842226122381867,1.8665179879177893
10.753027500373538,1.0999793685356025,31.084845486238358,1.879298373587193
10.929530789914072,1.1101562120513795,30.909826624998097,1.8842953302990368
11.222409618306754,1.1206371118944853,30.863707943037504,1.880347016061188
11.354590276043826,1.122397558302848,30.474666230700162,1.8591093269373236
11.686348605625877,1.1385063914533788,30.282588861642093,1.8590009756966652
11.866990888413033,1.1507548290704976,30.513834522376715,1.8566516113522555
12.11736011832127,1.1649698380853435,30.32598570912404,1.8634172661185437
12.23656838585785,1.1728480074503271,30.469195813969108,1.8597706648958152
12.49717208476203,1.172798874504679,30.139565773364456,1.843872435112336
12.606751125444472,1.185351962168428,30.301308562581934,1.8461553257002992
12.832062161363325,1.1986924185616306,29.87481487312605,1.8517042028723443
13.053513690314759,1.2045450299558906,29.784331377396114,1.837255987339021
13.29704051501481,1.2130104280543783,29.613766753545846,1.8296082270974416
13.594017321711808,1.2241178102762442,29.46147611164914,1.8233363032671737
13.80378507647224,1.242922799301298,29.201332654881647,1.8277353896955144
13.887829327115904,1.2564386406200012,29.08267233338947,1.8301131704601972
14.202510459022712,1.2572617910797823,28.88811531910235,1.814128732083793
14.38473802390535,1.2620255186608613,28.551459345379843,1.7976742850457006
14.530667882359626,1.2708136919593307,28.270029275251055,1.7895607209725226
14.661074213649034,1.2869613482378126,28.235086232079396,1.7972444795377875
14.987795738867556,1.2934817916983634,27.88763681298706,1.788052982849726
15.314827867135284,1.3047104640225866,27.673915874150637,1.77637059786046
15.526651712787165,1.3102606193078112,27.372916824039574,1.7593578190618004
15.587920990279493,1.3243559196178638,26.9541154445593,1.7578989565690923
15.845872537487178,1.3277559784923123,26.781538200267818,1.7437852075821865
16.08172468772508,1.343329866407663,26.79564887255937,1.7472960149756982
16.253103602972466,1.3492197101883223,26.576721100463686,1.7403441686355532
16.46041876181329,1.3600818412794244,26.698138928323093,1.741675815923296
16.76754642841648,1.3693689407856093,26.301915515467773,1.7373477681538023
16.9464761681783,1.375832849369896,26.088975444166284,1.7232884736955416
17.281940345235192,1.386214198900868,25.802532808225354,1.71533565219973
17.530127085955282,1.3988877321666244,25.388373199778833,1.7056011598851843
17.646593204056327,1.4057440403681751,24.99364079030116,1.69079225520019
17.943508334788923,1.421800757515709,24.68873346423483,1.6884040612161457
18.113178909796595,1.4316967749209664,24.365022147834864,1.6781197881660208
18.141503717329066,1.4225433936362002,23.844977926572803,1.648037409727556
18.30180240885924,1.4358272845517819,23.610216846213213,1.6458011473701304
18.397592613536403,1.4394320912337537,23.298529234765933,1.6342495460824862
18.661303370138626,1.4389724806907551,22.85516565637191,1.6139887426436477
19.028485030480937,1.4558318078349974,22.62709654087984,1.608199868853131
19.2801550811172,1.470221261088579,22.045010071152365,1.5972422478526371
19.47510191061586,1.47511835877972,21.563857502863772,1.574208296308802
19.732760038790836,1.4916715630394484,21.30605813865673,1.568242738314672
19.84211599714221,1.4955395590412681,20.95344928356741,1.5529145354303628
20.011269634756076,1.5058582213892024,20.517241182099262,1.5439686534832888
20.189775307505865,1.507429163312706,20.167811781687288,1.5243773407721422
20.13945401247127,1.5041083053005326,20.022782354696005,1.5072694407632852
20.391331171910906,1.507412211091538,19.584125692063026,1.4970655911946844
20.742866805876115,1.5179262333850603,19.107545962377223,1.4814286267417236
20.95664465535737,1.5296496264274673,18.865940534487212,1.46798209786588
21.301636210427482,1.542439883712863,18.684564611059518,1.4614606339286602
21.313866552465804,1.5514874966794057,18.385197073199954,1.4537068686303425
21.440062048104675,1.5514547420860247,18.28589262243958,1.4423548387592449
21.369796178761916,1.5580164400182235,18.082215547604328,1.4408311071647881
21.43758757962659,1.5619274591928778,17.911003070519023,1.4372280784652283
21.678161308042927,1.5627783642356219,17.744485803290548,1.4269996157934706
22.107953074999408,1.568068675668497,17.440282162484802,1.4132704788935606
22.388353963088335,1.5819963404506758,17.301512825851535,1.4053357329674703
22.44946613037928,1.5860630900548496,17.012364590888723,1.393936333480202
22.600792788317673,1.5942186619046141,16.801385189293192,1.387334898349544
22.86058889794449,1.600389723630941,16.576020365035365,1.377825627158067
23.050657225352804,1.5985417389826733,16.365822083609835,1.3605388700623238
23.31836747650222,1.6149450015129374,16.060256296560485,1.3575144819601368
23.389892463128525,1.6256233006827194,15.764580259207024,1.3487516852004122
23.52334376362659,1.6316773038406498,15.60348085049988,1.3401558943750773
23.73530758126226,1.6421161240474316,15.273517200916737,1.333903345333179
24.21011353569224,1.6452644550934337,15.004457875527871,1.3151722676831497
24.261094499695602,1.6534228372359894,14.866911071913139,1.3042456144613206
24.29966912516871,1.658365971091768,14.660122346404567,1.2983191314763585
24.510410390607586,1.665272196527456,14.47520220913177,1.2922102916556601
24.838623822237786,1.6660831889961254,14.276983221239076,1.2779444173363734
24.98456547388123,1.6857260657089637,14.080908665446039,1.277876431377225
24.98192696943122,1.6779781233059385,13.697158949390593,1.2572480543170503
25.454472456282957,1.6905897101064649,13.481830759531643,1.248047616285309
25.759147254758343,1.7009206164011188,13.382763924983777,1.2382027866223921
25.717463304483275,1.7010705301594573,13.068352169807172,1.2250622688011545
26.278975729049634,1.7137382980800975,12.845503146357673,1.2165943060655457
26.75635817490486,1.7220266420853247,12.786407816065537,1.20359173601815
26.653634558387527,1.7354740077366975,12.707867253095108,1.2034177357020122
26.893990997963925,1.7361586949465209,12.672490819574193,1.1990398233008082
26.924515125825756,1.7400340480920116,12.523360793019425,1.1947422934220626
27.29861109109657,1.736792354241534,12.389661386461539,1.182143512925939
27.33390248528592,1.7594081218376314,12.105454181097622,1.1836715061693637
27.55222903667112,1.7566989215773259,11.917621757012407,1.167616768523405
27.597704547235324,1.763149431129292,11.82065403646741,1.1613102790848617
27.788750279023027,1.7749924938638637,11.82248303487388,1.1633539106519366
27.97400393391466,1.7725245768261162,11.814849428568673,1.1573479894707102
28.149692187624623,1.7842704735213077,11.78263942656036,1.160383128381541
28.101805652204327,1.78363130161659,11.711392271804058,1.1559343447993793
28.55729185430078,1.7767771635746978,11.561960605729098,1.143079788184735
28.68953754992551,1.7935076093249045,11.553459434240587,1.1438005429122335
28.994660037385575,1.8056589640857728,11.42785813770799,1.1437358593037532
29.243972561430933,1.8073496099609918,11.35116528311467,1.1345178265295806
29.431872948566202,1.8169527386943582,11.420330600937916,1.1349572735826519
29.704558105518636,1.8242469884865709,11.467997178332539,1.13740895918196
29.76073940344817,1.8352220908650947,11.517651553109388,1.1431491354662724
29.895977624234536,1.828410117835235,11.459650288825653,1.1372091511487958
30.10202061202182,1.8301430940114192,11.474613569047737,1.1342293133234171
30.189222708960656,1.8292679047452154,11.634938958983032,1.134138586934186
30.32672483736547,1.855493164928684,11.60988534468547,1.1518161615791995
30.130988024561518,1.8534295762133617,11.6803859646115,1.1519284355162944
30.451525072501457,1.8422139851886332,11.76434703263399,1.147482685684652
30.450394121397238,1.8506829153747582,11.845796607646307,1.153844658012722
30.620249628435708,1.8590796707114805,11.892160062930326,1.1606242775387898
