$D^a [mM]$,$D^a [mM]$,$I_{islet}^a\ [pg/islet]$,$I_{islet}^a\ [pg/islet]$
0.5185922764356006,0.2439757838253263,3.037377023063184,0.4884346543102311
0.5632714111316628,0.2946309396906417,4.064903547631975,0.697720939772682
0.6338081052796913,0.3149599213189616,5.105822090424689,0.8357487392237336
0.7204589585386936,0.34007909189176305,6.066224626940806,0.9576928089221692
0.8073626398267408,0.3596907683817685,7.097860192205541,1.0450684724809756
0.9201576957773403,0.38115156586553167,8.046247165279418,1.1250973713774786
1.0338926118122511,0.4059319574140796,9.022809307752949,1.2006423644526465
1.1694949118138818,0.4318183391416717,9.969585308842039,1.272157417772075
1.299380088186192,0.45880506047085506,10.994138164271305,1.3420907358345624
1.4318841998738114,0.48664600973906946,11.919147933061417,1.4154814113711134
1.5834327564596424,0.5052534191427429,12.835820924919965,1.4555480159585494
1.7459950792196954,0.533529379761709,13.68348639065588,1.515752996552142
1.9143904963183445,0.5612256853947662,14.67709369213072,1.5718638788471146
2.1008881615930486,0.5826483825866824,15.4593819142122,1.6073136462447835
2.2539009596346737,0.6087511501483537,16.224078541830437,1.6526208444111996
2.4134031820024977,0.6324473778964801,17.088807252463013,1.6984450526181207
2.613164160030058,0.6615204524223637,17.90447422689222,1.7557952399237438
2.765061164073091,0.6803858355195482,18.51209091927583,1.7808983936548466
2.9533750971800163,0.7073982199618879,19.280400486126556,1.8288203774141052
3.1310092152032234,0.7288919236285332,19.892133024675886,1.8601289942875043
3.3102323060341106,0.753369667752116,20.572613781055086,1.8985488035675824
3.485061118093573,0.7718982154070638,21.36033317353147,1.9262097092781911
3.682678622093034,0.7884171727940693,22.043207921172854,1.9494114610141053
3.888159377348121,0.8087082326458701,22.67949954715562,1.9760855077087551
4.070985291415633,0.8301024581268276,23.421145696812236,2.0071054817830065
4.231421661942208,0.8552487802538294,24.151320589928993,2.054901457389139
4.4106478207717785,0.8641544220386863,24.743126595155637,2.0636211610382427
4.5642736202720755,0.8858945410676536,25.191301375550353,2.0986326933127923
4.762871477591583,0.8992459378638702,25.741610862934163,2.1110535995681006
4.931051338905267,0.9252213235311754,26.260914993263608,2.1523279230144365
5.123007005593672,0.9354202652377916,26.79536003468831,2.1580125423732954
5.335787003612728,0.955485339452507,27.387524432397576,2.184417390266249
5.558258140112426,0.9721848952273948,27.801275504032933,2.199009006561454
5.762155943612021,0.9930449201975636,28.241654304644015,2.220316364012845
5.94403873390521,1.0124135499643838,28.541022929421906,2.240235655403054
6.152790639798712,1.0310291253982635,28.958472855327287,2.2582545499254256
6.385924682958171,1.0531485297245515,29.305865458131382,2.281404420544022
6.596977056156043,1.0665715640136741,29.606533034960414,2.2831573317487517
6.806881986109531,1.0830608410249414,29.886753824355928,2.2926796491703967
6.969273462911131,1.0992172516596566,30.154518928185283,2.3046218361621147
7.196925652930146,1.1155729605483695,30.270358189219063,2.315060920955001
7.417502375760299,1.1361051621689515,30.568745194172752,2.329206112794369
7.588076083979079,1.1471610191113646,30.43056444365683,2.3245162247327573
7.8566933686597675,1.1659469927174808,30.81913986358009,2.333266508273387
8.073274108644451,1.1811013339222949,30.938486362020058,2.336645746391003
8.372219507043464,1.2066164558029167,31.158854126517216,2.356861174407629
8.620031270655227,1.2211160251164896,31.389442902958965,2.3543663875771825
8.78778403864064,1.2345167790354397,31.48336955419603,2.356199487578528
8.935722919593976,1.2587098123763902,31.754895920726472,2.3858368356649127
9.175945170862716,1.2573048861360565,31.673207866568852,2.363063067650601
9.420485838140786,1.2774958423715286,31.899368094130164,2.372907872736395
9.739688864032576,1.305852278309022,32.13757212254886,2.398688916354234
9.93636549144103,1.3118432280116898,31.85780134864185,2.378050306288669
10.173091460865942,1.3273006242628214,31.807384731197548,2.3737472535073456
10.383141579653142,1.3458299079151868,32.16654358531886,2.3835545534563316
10.692250249972515,1.3649897234766801,32.05012983046252,2.3939152953095704
10.798738167062535,1.3721794478630642,31.95155970616074,2.3782879323823716
10.98412472418706,1.3860934165029328,31.73333062616899,2.380282808477115
11.228377754204303,1.4021644238711948,31.180181637306315,2.373275774822189
11.49477370283823,1.4125943365028206,30.979724446949582,2.3499583114475846
11.743966959121094,1.4365248489654834,30.888087687212767,2.356123322528022
12.02052505363914,1.4442287413130004,30.769991222550697,2.3379865313242614
12.180973784989932,1.4593933834689814,30.169615790811655,2.3285028868962407
12.496968175992919,1.4735753096849737,29.96198895961615,2.313350511790871
12.756624700020394,1.4981723576255195,29.685901825046418,2.315386720333574
13.111778155896694,1.5147391601764908,29.54311358998911,2.3048818453309474
13.2612434797949,1.5211244931651287,29.4597301637995,2.285524072981314
13.381965115671287,1.5388671462949253,29.079800310751462,2.290733865091401
13.60201749351346,1.5524078182725196,28.721499723212343,2.283217331821167
13.831238378431635,1.5543218049729495,28.430415608646534,2.2548382910550417
14.057735553473487,1.56893168297448,28.510543159678225,2.2515070073860253
14.439639074735316,1.5902257245053069,27.934461725360325,2.2510237691071135
14.739765953159445,1.6023096015185982,27.815583014342273,2.2276051451241234
15.050550003099447,1.6180519272571225,27.502840713877028,2.216927578773804
15.243737454055019,1.6353744212527581,27.107324690544505,2.207498526962968
15.445403092387402,1.6493265272870798,26.92482044230189,2.1988970821864
15.530591142545797,1.650756222292114,26.714176230741003,2.180819331143763
15.830937102396557,1.6677527893693993,25.96773777533136,2.1738936056184768
16.085864202695074,1.6964026533831296,25.781234519635973,2.172520278118167
16.278340535146672,1.69218824941114,25.57174012291031,2.1414412341223064
16.41067286616103,1.70856311460541,25.21489275687008,2.1392746309430066
16.56053194834891,1.7052160117549202,25.16308387857591,2.1160049609290983
16.880050624005136,1.7308636977254164,24.9971669993494,2.1290576945443056
17.070412856503097,1.743854012195542,24.483547699101127,2.116353721808299
17.438959223962577,1.7406273431621895,24.345651212404235,2.0814937183818834
17.744298015814117,1.7625244773768427,23.928103438452418,2.07621161775815
18.060232591196048,1.7739462081014814,23.670625509583534,2.056706917698695
18.50477331777574,1.7974667162344888,23.469210812162622,2.0524366254154844
18.631384010332805,1.8149443390170412,23.198976870570846,2.0445810530640407
18.95031847025203,1.8171349381026267,22.85297990287302,2.0217027039529385
19.237444926227912,1.8333452458582649,22.45047530985608,2.008180182921923
19.438228234381807,1.8560449013860782,22.160443330262492,2.0038870484523508
19.661488766183773,1.8639163262894847,21.71774675487481,1.9849783091877544
19.893942185986376,1.885095043990456,21.418424105784293,1.978978992805021
20.16471499674801,1.881968472706349,20.934097464850407,1.9459703095967056
20.43852676758881,1.8840889994389325,20.54895927738604,1.9154994319213026
20.470963141534945,1.9010377835326502,20.175547355480294,1.906404940974897
20.766828737893384,1.9079782156788665,19.86176711106273,1.8895879671265212
20.912020616925,1.9110241108452146,19.442389279978364,1.865693836174385
20.847697625628545,1.926016343455183,19.05777122598363,1.8580100707722507
20.962591038811443,1.9290158831650572,18.550479549576625,1.8387967992402996
21.236773474971425,1.9325479496568416,18.08804337892374,1.8115962085055781
21.414829077350046,1.945277986308233,17.697271333101536,1.7924561054270398
21.717952885844205,1.9571897128013742,17.373074009519737,1.775056610447399
22.392956641014813,1.9755989334548405,17.01766336249347,1.7565189168148974
22.50896681767428,1.99297296206119,16.7995478373784,1.7397473788634135
22.751641727519072,1.989494796052025,16.573639842483413,1.7166440994015886
22.846923049256674,2.0028281566104913,16.123636085702095,1.7050954540184635
22.964470252488713,2.012946688504299,15.829985942479738,1.6900308533870372
23.142779558617875,2.029231735008309,15.61859825059327,1.683977174998545
23.245996214202794,2.0351410591705,15.291449272182897,1.669430053214238
23.36843657962264,2.036731164888078,15.040297122194534,1.6510326675376257
23.682913546611097,2.0353592900714608,14.633143103211205,1.625719699877007
24.034134627974517,2.069580231983124,14.2650099151711,1.6213637004803343
24.51101469942254,2.0805783618004603,14.01518808597363,1.598380057738737
24.72337343796956,2.083519119416947,13.620531993290939,1.570879594268795
25.021137874881514,2.0944860775022867,13.411165032022769,1.5529887072877726
25.272672805919186,2.1066945078826724,13.249510068984213,1.54168319941988
25.268247631953187,2.1219131310175112,13.081312022645776,1.5382108768823177
25.567147282657153,2.130689311860928,12.997735676197298,1.5324095012124133
25.581619306426933,2.1267758828174235,12.777788046889368,1.5161854518777125
25.95313720894063,2.1310310661957743,12.631494277956245,1.503353082548982
26.26420389186783,2.161521527241314,12.429643679321197,1.5051794221683226
26.42539707855516,2.162338860252653,12.28074080042734,1.4878214517887136
26.563831037927837,2.164607355277901,12.221574202923037,1.4775707203956208
26.87945512910083,2.1744606413781162,12.181865617711829,1.4747982246938287
26.968263224801674,2.1839663518690773,12.004133136887347,1.4694929082939447
26.982644517188998,2.1982103464028877,11.785922506616998,1.4658309106417764
27.18770701632741,2.195709139174077,11.745453080639901,1.4526658626444053
27.452117756168434,2.1994193099448895,11.644555822127622,1.4445162436861638
27.50460368248219,2.208929031886712,11.61609717798037,1.4418968459261825
27.452482699681305,2.2075388243831333,11.620806670899736,1.4389820495984262
27.84775986697257,2.21903078690555,11.448772459065443,1.4385761403826778
27.852411357277408,2.219134530759256,11.35860898347408,1.4255548948360648
27.671797780993625,2.2221364132708437,11.218619258659087,1.4213016132155887
27.740713700867715,2.2125202375490085,11.096563036986232,1.408621560897062
27.867422769702884,2.212777471244217,10.864463692200701,1.396430848109974
27.901613172457065,2.2238616545708476,10.717130898596151,1.3892945764301319
27.991264287410463,2.2136520904795596,10.691381995166509,1.3746735807389854
28.284749748521804,2.229008514239758,10.63106431816417,1.3767329047873809
28.21039929323512,2.2403500162916035,10.639408737865564,1.3784329759990632
28.389458728003785,2.23786223840353,10.556001976480733,1.3733588396060579
28.556040509120255,2.234360727113909,10.540002911224702,1.3642408990029324
28.78095943763114,2.2474147659298143,10.527588466725845,1.3663598020280272
28.92194376876552,2.2744215537330397,10.463244262073447,1.3760640144599392
29.152202101766814,2.2458719524082524,10.365828052155782,1.3496054167183062
29.360153189378224,2.28711264040521,10.455006464555254,1.3679146466430625
29.62301246820285,2.284659134317925,10.33980526055745,1.3605535596087206
30.000164591073776,2.29443597464276,10.368856830068133,1.3564778759092837
30.039107420885756,2.3065331004810794,10.406441696727905,1.3598238291914067
30.229285754535887,2.318784439428057,10.456919691916232,1.3667221436314518
30.62852523535611,2.315508412647306,10.571050883787109,1.3634404712581654
30.822068183127797,2.3359783310170967,10.577568938809435,1.3730447175607068
31.35557079123805,2.3489118034467715,10.71884015969031,1.3771692176063506
31.555252756666796,2.3556929132810356,10.931297615808774,1.383076311412951
31.803242349559078,2.3736228917107414,11.107868574281971,1.4003042773976129
31.817295075916046,2.380773794263646,11.379634686152277,1.4149391376810894
31.73673380730308,2.3708831674787745,11.499203490641664,1.4219495972176903
31.90067648805103,2.3466004319632434,11.593535494584824,1.414135506476729
32.16967405335464,2.3793364601883975,11.806898276594088,1.4384518850593788
