$D^a [mM]$,$D^a [mM]$,$I_{islet}^a\ [pg/islet]$,$I_{islet}^a\ [pg/islet]$
0.518145515380754,0.1149892759008895,3.0617095164269137,0.233618487678495
0.5688663505372941,0.12786086826547338,4.065413913416578,0.30519627406366084
0.6421602028498608,0.1361614283057466,5.107492434687072,0.36050043768183715
0.7358271692976208,0.14497900448764925,6.130279891536825,0.40608828083153387
0.834155083141463,0.15532732227487428,7.1884670315967165,0.44804029555606567
0.951512089176118,0.16487896956652306,8.097376618100808,0.4814198640418545
1.0781281418054678,0.17635053111544263,9.059982910922217,0.5136821135120764
1.2161456340970047,0.1879004421297206,9.995370645369935,0.5435454766961083
1.3597589856138417,0.1984621050363659,10.94527739730653,0.5684537790720225
1.5091218501110828,0.2103834946634788,11.861884726397621,0.5962189772346911
1.655464599473904,0.22133349842016806,12.764931028789514,0.6205648163296107
1.817545785696314,0.2328994705769932,13.675973994872695,0.6460482291604028
1.996520253388356,0.2441413127471576,14.56802989403397,0.6683656065488048
2.168832463842032,0.2543298241801306,15.592025855653192,0.6878812063911565
2.339911167062637,0.2658579440053005,16.454059195774228,0.7123489493889555
2.505494824442674,0.2749827907047028,17.246567782992823,0.7290070182359955
2.708692056829073,0.2858253617817882,18.04512054878057,0.7480769304784695
2.9153605468474026,0.2980227289268057,18.663772877368103,0.7667435175419802
3.0732774099798132,0.3091345840251819,19.415301088861533,0.783804958305646
3.23098082539259,0.3180068586015167,20.432591428293122,0.802055809932684
3.447983686340779,0.32539934729346776,20.947306318878493,0.8141742644671056
3.637270900321353,0.3341997833445563,21.520644000034626,0.8231737662666084
3.8410928676615606,0.34278192136432595,22.13859133829587,0.8329030087769855
4.058061262870451,0.35407909762005985,22.939846349364412,0.8501344688815818
4.252796411497212,0.36298866041264227,23.347055737816866,0.8612575528885447
4.468277660358333,0.37455626110443974,23.87621554129918,0.8764722896154682
4.702412846117457,0.38209495095938584,24.38124521069405,0.8814828636904088
4.9296073540524095,0.3888406508070563,24.933573080340466,0.8846458515769084
5.129587205546383,0.40067380315504725,25.341512108834547,0.9003540314269095
5.355271451266089,0.4084736087633419,26.190669403989382,0.9092581957871784
5.592063376485993,0.4181907249101619,26.5995257295082,0.9225968667180094
5.826401826290673,0.4279876787982806,27.02350583091722,0.9322929071403732
5.990443804311779,0.43503805601788237,27.45905425552859,0.9381280662077308
6.2603968480370105,0.44072456255831194,27.768080735970216,0.9404001043435466
6.428800509511303,0.4517592322913203,28.19138506351577,0.9529207846301614
6.714835943384353,0.4573629762468477,28.673776461703813,0.9556220374252571
6.969071264744577,0.4674380467463932,29.371268794962358,0.9667722445485691
7.254492885247762,0.47883647492866827,29.765061125902626,0.9808833971981784
7.463078080231442,0.48362187967108655,30.03243552865058,0.9793745210300429
7.675804177565813,0.49357281355786486,30.41101139453551,0.9903627777705423
7.850645223844568,0.49960759595928816,30.904943353935263,0.9961503289951118
8.079560675191857,0.5054708665359662,31.015411126300307,1.0006424532398597
8.345605417728878,0.5115536077110004,30.77773412619508,0.9980304194885076
8.524244906068498,0.5176018502264166,30.79810326401809,0.9942339357347306
8.789259043150988,0.5253190588950791,30.832799676608424,0.9962527726234558
9.088238377398032,0.534700942749418,30.852564007940913,0.9988640616751517
9.339914556985068,0.54231559180298,30.798980990382617,0.9974829824369006
9.627233518517071,0.5503237355299205,30.812758454807113,0.9973337226285386
9.87996921704433,0.5577813983636387,30.759486151300866,0.9962811298709069
10.034013672083905,0.5668761730099453,30.740641310701804,1.0006844955292733
10.324876986547308,0.5724937629611538,30.556206976185177,0.9984715837754793
10.447009451423085,0.575103206042954,30.49196325937377,0.9904575883630029
10.720058507120674,0.5803916302784905,30.271754048858988,0.9882432591612665
10.903049752312004,0.5895982392633795,30.271497388070504,0.991207650590159
11.099554685772908,0.5922911700555974,30.278091754278453,0.9865619084440191
11.400637618716157,0.5993384142442986,30.219305240681884,0.9874245203459895
11.614098748907308,0.6070723621761411,30.281490035634036,0.9887184561588309
11.83085767878067,0.616159474819921,30.00925123846964,0.9927361966848345
11.97649763096062,0.6211789989757558,29.69651950467148,0.9884309763954231
12.335443529958864,0.6316724278592015,29.57084717996581,0.9915627077947684
12.596520162318164,0.63122573808403,29.5676892365567,0.9769998966167814
12.739665013321908,0.6355778256834623,29.53511708706188,0.9745925307602782
12.915691560659155,0.6389296918506683,28.993997567003202,0.9696269034861585
13.11651778949177,0.643696874259319,28.635730813114844,0.9628266900799837
13.303902744802624,0.651365392859924,28.521652352479986,0.9624979376011861
13.70664900705963,0.6569094158995792,28.246453679195305,0.9575718800830697
13.906825586229342,0.6686646770970016,28.10740652831801,0.9602802785718986
14.137188665744558,0.670503809309213,27.867826588962522,0.9517653869624725
14.25710534992079,0.6757609069845997,27.48348177031456,0.9479578976253669
14.454805373519086,0.6793716744239734,27.058656388608146,0.9410680866959145
14.608648304608053,0.6801920452310248,26.615015693479215,0.9291516000378395
14.922108034194164,0.6803851178036942,26.125644575431462,0.9146050864415457
15.304593107041034,0.6928252851681416,25.77794293414406,0.9137880536187659
15.414401758573154,0.70249122903275,25.32670883080825,0.9112485140718556
15.693936129698187,0.707969349271294,25.216871586731223,0.9068236339119303
15.8165871752639,0.7117606162277273,24.991773288881628,0.9023263390470717
16.00754647465228,0.7153402805396498,24.6734401788095,0.8976891467841054
16.226280422621116,0.7177036806134476,24.503212242857238,0.890541218626704
16.239099455474683,0.722018839006307,23.875511320671333,0.8856483597995565
16.46200406210302,0.7232780507967475,23.571967867770518,0.8756530977140291
16.73399217857784,0.7296223145569027,23.024367443863312,0.8695757436087683
16.82857127353897,0.7316210628121044,22.940166044504572,0.8601738853741299
16.89107195814005,0.7386342771746159,22.684937818423077,0.8624532864416383
17.005990775474906,0.7379656959154213,22.320632151560876,0.8539985468362637
17.055481149016302,0.7435701348246244,22.173740998805236,0.853128761768836
17.048838042939135,0.7428860314975938,21.698771236508367,0.8459733965346065
17.146173405647055,0.7413775138532084,21.544428243788115,0.8370627394263754
17.37184054270635,0.7427604010442189,21.320207126987682,0.831312393638162
17.56343454798214,0.7518063269420546,21.033240969672473,0.8318486314095449
17.808914001655534,0.753984109936444,20.911155085095327,0.8249072294703584
18.029003144557173,0.7632819629374008,20.397247551846284,0.824044374411126
18.346835847439447,0.7678387620362502,20.0810855734043,0.8149068784629564
18.40910882976066,0.7690962206234523,19.728165907573995,0.8046041217029498
18.483428077545643,0.763932851584558,19.648329853583192,0.7923849061953155
18.63228707368119,0.771515844866115,19.074381703062055,0.7920690779213335
18.85288235616902,0.7770768658866006,18.64238410397595,0.784280874051929
19.18643314978744,0.7813344441528897,18.32199741976365,0.7750207159196124
19.157333213127067,0.7850076524725017,17.928302233520505,0.7674101450960713
19.208970257143715,0.7871137390648557,17.507669400343406,0.7603439390460519
19.31134756864569,0.7906770900506074,16.952735801871185,0.7523259532812426
19.511595733178673,0.7881462055800119,16.52265331556408,0.7365412812873894
19.57801625891362,0.7914227466951038,16.26037773361834,0.7287663262840082
19.981083653331712,0.798580513044627,15.858912682077808,0.7241682016371157
20.374344531603047,0.8037786559603607,15.31901987343479,0.7120709128556173
20.613751764748116,0.8100196209326416,14.927147561355422,0.7010685459852529
20.77104803172191,0.8094117557569023,14.500232849997463,0.6871644467328041
20.86036626381383,0.8178672559651242,14.137370025983419,0.6826665394290534
20.978955841084105,0.8207928865128606,13.838764312609719,0.6751176746092771
21.43786805287806,0.8254980648159852,13.453785688691271,0.6668313820288726
21.57545399894994,0.8280876913516401,12.980154381628644,0.6540912938772221
21.39806699351617,0.8380449202900834,12.760574193093477,0.6522644861705874
21.374658288676116,0.8324717311206474,12.37216997155016,0.6414790846982076
21.53170807823222,0.8275836055932568,12.112722336781681,0.6288824754239982
21.726925523143617,0.8329509010858749,11.922418344274542,0.6245626946675827
21.85115627010997,0.8364920629651558,11.464209932609442,0.6170020553771116
22.017739181626098,0.8448751405566354,11.15050561830893,0.6110387960936996
22.05057923796907,0.8426189986379169,10.80716195675721,0.598837054363664
22.115785195982227,0.8441339514620759,10.60156997001423,0.5913314746840587
22.17169708588222,0.8421334079209865,10.192058748104063,0.5809545916756184
22.346890038372088,0.8422483781723671,9.760664746577598,0.5684642953478645
22.541887490604218,0.8524829767482486,9.47187289376039,0.5625681399865817
22.556170301751976,0.8547738260910253,9.128371687526013,0.5531369558399793
22.605426352715185,0.8531360689781523,8.907711146641129,0.5429376397919342
22.787727996015743,0.8588449209875538,8.534486927604245,0.5366175592543772
22.73632858913587,0.8616343633145462,8.224168384795044,0.5270167321004178
22.85646001659866,0.8585958852778142,7.879803979337828,0.5145312032348088
23.017417409324505,0.8574880675913364,7.567962212522751,0.5020348684083937
23.286542586055624,0.8662488261319549,7.2908474187222145,0.49525764725998234
23.38767895292984,0.8672656240508093,7.00457566007065,0.4843494051787449
23.37239486448158,0.8692431117159003,6.751233711828685,0.475515388961767
23.53538136643319,0.87092474642936,6.4449755752744355,0.4662191450495011
23.656514697042077,0.8731255108321426,6.138815061551248,0.455440267267168
24.116900170998758,0.8797221029610353,5.844855508831245,0.4455106806263909
24.292409596002738,0.8871914167468274,5.591233488019235,0.43596229480923454
24.266763625938914,0.8855812056291266,5.32767124762437,0.42425054483992086
24.310242414546373,0.8886383499243613,5.072226620465058,0.41546410308682824
24.43792593300009,0.8884661276995313,4.835175499981854,0.4048659076351951
24.638276234088107,0.887333137433126,4.56815207028881,0.39295700444652576
24.636481528383623,0.8888096422029911,4.300611001395273,0.3817015495346619
24.576528356481106,0.8927067991367145,4.003067560538831,0.37147333922014186
24.737373152560526,0.8907469993557027,3.750563252888632,0.3580575559160857
24.76600653970903,0.8933921641389115,3.46601919026945,0.3461360434496065
24.58808190422827,0.8918054807847129,3.163873132381204,0.33203871165577076
24.62630451559916,0.8881998424689785,2.924787742485013,0.3175227140090583
24.76205949808693,0.89842516347683,2.6745730427115606,0.3078872818577283
24.636066561851283,0.8942642426678413,2.426537941101844,0.2927739065701323
24.67069674677296,0.8839505536911209,2.1868554429682785,0.27580948214985374
24.809970910261434,0.8943411716729395,1.93650706935023,0.2641221019240191
24.822140675224,0.8955035432106836,1.7008186478386027,0.24854852135510444
24.897429693365282,0.901288023179464,1.4570742641016223,0.23357024823459208
24.55734617737435,0.8970629537982217,1.2063354701796067,0.2149736759936058
24.663862008208536,0.8871852063518326,0.9561274762077531,0.19309955452908675
24.76701592370867,0.8947903308783864,0.707052674941904,0.17209902904455487
24.720529741598494,0.8936602462956933,0.4645820278798546,0.14596294929528014
24.73063510097147,0.894568536590781,0.2187631764913281,0.11420476418984228
24.73708761842597,0.8905545687348078,-0.027896093119770055,0.07044381164355978
nan,nan,nan,nan
