$D^a [mM]$,$D^a [mM]$,$I_{islet}^a\ [pg/islet]$,$I_{islet}^a\ [pg/islet]$
0.5214319887405222,0.11572775520597993,3.035812411249444,0.23463550934926217
0.5701725502548658,0.12943376604734216,4.06561320147867,0.30753430745001725
0.6427446810548887,0.13652476801274607,5.081564812284955,0.36039552098272787
0.7227094522886355,0.14407084347122512,6.058525606220963,0.4033303293517214
0.8313203904657829,0.1535579205645246,7.04648976648988,0.442070894014683
0.9436022148013885,0.1654282841256607,8.063980406876546,0.4812965081076467
1.0636229617633852,0.17535760682830717,9.10242760534051,0.5127352388966865
1.191814097804791,0.1854004359717907,10.059796294583949,0.5416946662656451
1.3454595176329407,0.1978539142536756,11.018519423044031,0.5730982511260352
1.4942782797148029,0.20971873500496951,11.976099908651424,0.6000425815040422
1.6405944734393128,0.22079814690185523,12.854791357185439,0.6247963244677065
1.8261571637758556,0.23092298491483915,13.820947214599979,0.6445896110426702
2.0031906327303033,0.2441972442767035,14.608926976964153,0.6701296744478635
2.175368237798067,0.2556444499900203,15.399325075563851,0.6896997404363583
2.3278876120288454,0.26535849049377397,15.977575941971427,0.7049558066072681
2.4918561174236404,0.2757739029139288,16.681093590373425,0.7221187138065123
2.647481021712642,0.2822477211230572,17.33167941332579,0.730012703602005
2.839499574367341,0.29351491910028515,18.08495946375014,0.7498377120544787
3.0370330978206947,0.3043276541678818,18.977158908137675,0.7681879826553788
3.2333787363583775,0.31231510155149983,19.561931461873005,0.7786442400131873
3.3976204189285326,0.32415765819973913,20.100133840328837,0.79722681723564
3.601798660135996,0.3353532095282109,20.928565547424906,0.8158051816312123
3.8092236580290577,0.34536880566124395,21.360512976012366,0.829736006941338
4.005442180488407,0.35028154797615724,22.113782065367314,0.8303601230726175
4.156017306277384,0.3584205889596113,22.497046478563465,0.8418161851373028
4.402419938606904,0.367673310912422,23.003853204833124,0.8525264845636789
4.661299083005325,0.3784494342302229,23.826429175636225,0.8648541281857937
4.891361990208282,0.3892001481428958,24.3894333826219,0.8788376643809709
5.101413196206933,0.40030488024789623,24.903547309090005,0.89345219820788
5.326673413059264,0.4068090773398895,25.134151192458695,0.8960582039833496
5.496171932065473,0.41522868706186317,25.640082189263538,0.90347124560087
5.70232876040957,0.42224645023607255,26.103080331837322,0.9113539818952429
5.8991721007163385,0.4298529185417771,26.870835344261387,0.9216445106657106
6.148767066243084,0.43930692702771457,27.072460851524422,0.9339474454284482
6.322719172362904,0.4467523125645488,27.313827201343617,0.9375565015533511
6.489764896516823,0.452964658145398,27.393610503482158,0.9404130383583069
6.748630089339146,0.46037597457321194,27.774528313422866,0.9444126387915448
7.023317737327607,0.4683417073469571,28.05331503795232,0.947963294035605
7.233046496926358,0.4764702151745617,28.376143200133463,0.9524800459382162
7.430437199084992,0.48569946465585384,28.7451236100202,0.9624391451299407
7.614783111324815,0.4900460927152682,28.83229600673956,0.9626748391077107
7.785734131780019,0.497833497259593,29.164640175163655,0.9697576620362061
7.976239381930135,0.5021994312286848,29.120200001330605,0.9698843521735929
8.28112320755837,0.5078427621458663,29.460463638343246,0.968737259076214
8.593066997274457,0.519465310584623,29.468000796428,0.9763606100393549
8.777226258088795,0.5266026003075981,29.73472904092022,0.976685289696251
9.090889234887175,0.5320102781014407,29.85204519695112,0.9761750106692174
9.332269312776754,0.5419838420141189,29.8871481848677,0.9810032056811965
9.601044811402986,0.551141593208139,30.088934319168995,0.9856045714277605
9.923258695830969,0.5575137004702062,30.450375119317677,0.9861417992791561
10.177347689756445,0.5670706564285161,30.72541817563734,0.9934323644092795
10.449320911588778,0.5752525274736288,30.52900241771077,0.996282273748448
10.7547506067299,0.5832378877709912,30.43828776729854,0.9945579721185241
10.895858194143994,0.5898808592101624,30.334806461369393,0.9929844902012225
11.213178081658713,0.5959020291020907,30.546470158538515,0.993150977697338
11.487395602401252,0.6017668720746098,30.203087264884438,0.9896969323887823
11.722926682820455,0.6131628614326532,30.39472785095798,0.9953778938197058
11.970643020425474,0.6186151844648463,30.179020365900822,0.9937142784833005
12.132224432417532,0.6226745620802873,29.991019410813234,0.988355751137187
12.356165338013323,0.6244767435438491,29.830195383670784,0.9804680856395848
12.487467970169405,0.6308843110037771,29.638483908328514,0.9803061259128992
12.465932956694617,0.6357746177686221,29.598814495749107,0.9824636461649443
12.742638604389642,0.6311074430245861,29.289369172566353,0.9685056244532576
12.86038696030785,0.6446848587126554,29.376935942665817,0.9796568603057983
13.18775399819324,0.6481192988094564,29.07568083789745,0.9754392941211183
13.322954595348603,0.6534044613544747,29.15965132384201,0.9724365175562283
13.574635151775576,0.6567133652021203,28.71172524169866,0.9678002753108875
13.813074544773013,0.6593285001365619,28.686896943541164,0.9590546508701012
14.038635862091622,0.6669167689137242,28.409373684044684,0.9593836211011401
14.095177190139013,0.6732347637584293,28.275390979731526,0.9593068965219012
14.45342376740095,0.6769283384925985,28.2339445179981,0.9564108096831653
14.668117231289717,0.6833396416276878,27.838192922058422,0.9530419943267457
14.836246507921462,0.689630441629023,27.71783241535793,0.950578963222797
15.238909240615712,0.6943749419534821,27.367621527389755,0.9447950835561709
15.343428286099511,0.6974299921548734,27.136338002901805,0.9356149822693773
15.533101715924316,0.7040063114850464,26.93290812667994,0.9355738205752506
15.722217986657999,0.7080172735946215,26.906240801482316,0.9328121912291645
15.878755788811548,0.7156598276848866,26.599104638744176,0.9350448991954452
15.855523237509452,0.7142350617704784,25.978369126601045,0.9234486064321253
15.988903072752903,0.7135736603234638,25.98543601019065,0.9149382976600887
16.227584407818245,0.7150698481959028,25.71418075684243,0.9095886756551557
16.5027245558207,0.7233391769386556,25.50780458267775,0.9092728260284422
16.55111123505499,0.73282694539969,25.07459185717785,0.9107279854162302
16.8694034695141,0.7312760711379042,24.785310642169676,0.8976722633411406
17.21209503504305,0.7417097073682923,24.431061283113543,0.8964510394324898
17.205009551765883,0.7469564617238474,23.932917253559765,0.8899447860221285
17.256542285270704,0.7451249747411905,23.794293269239354,0.8802401456094039
17.43607561403563,0.7447110203957646,23.669132046991855,0.8742139468700584
17.59682729762086,0.7487395414603779,23.47026121784493,0.8719943854571894
17.823068236900184,0.757204835089087,23.344694978383476,0.874163888967344
18.06813301977127,0.7612233761776346,23.13192688471021,0.8701016472826066
18.300016881219946,0.7652660036570088,22.74463955020487,0.8638726211639255
18.617092423684355,0.772846014244633,22.282756404257405,0.858594124414963
18.833991575028925,0.7749838497850621,22.07206172414844,0.8478797963606132
19.139448102693926,0.7833312670448838,21.797897976351603,0.8462733737800572
19.391292655299708,0.7860286635064502,21.760890054493707,0.8395313274023364
19.59606881526574,0.7924433036852392,21.491873898395486,0.8383720349533142
19.910655973075414,0.7992469335318537,21.19670625139154,0.8350726088565831
20.13003573405069,0.8030823406962226,20.746875582629414,0.8265381613628949
20.43454755217333,0.808549811168616,20.481357358173735,0.8196414504654609
20.74515095717974,0.8156414922977461,20.097512480250913,0.8142956216180276
20.905993018091177,0.8235170358731162,19.797003052323152,0.8102308811627474
21.047773104401397,0.8273111239244766,19.32235967384938,0.8031136797208253
21.226373259831938,0.8238897895070847,18.800136302652948,0.7869490716308931
21.52312239999487,0.8299160665034044,18.460306326813644,0.7794263077320432
21.629001640018508,0.8347255708203651,18.220240750822,0.773413029118101
21.7621358492111,0.8402594912106113,17.852148694130825,0.7698668662460966
22.149546711757196,0.8381938900386596,17.5728005569996,0.7570198265638499
22.291226733322475,0.8505428848726929,17.279805714064512,0.7572626126932083
22.493146985339013,0.8545137625595787,16.829882298489864,0.7499509885490533
22.59929989641284,0.8516701885371915,16.65503097278386,0.7375622156199456
22.708587458771884,0.8520190851273619,16.373652759633167,0.7307612138020136
22.8892443103114,0.8626820265489598,16.06134416548489,0.7312741234966212
23.265882330269438,0.8610519483529369,15.639201698689194,0.7179711403686404
23.307611974342496,0.8684829216230003,15.20632270525791,0.7111654981272933
23.329692444498775,0.8733680793228056,14.7887169685567,0.7043984382012887
23.513502859946826,0.8700304397830133,14.554066577739807,0.6922448344998883
23.596016113693754,0.8693010996943077,14.269782447507778,0.6834069251740635
23.69796346924275,0.8740829868038557,14.042333320615153,0.6795937096476596
23.592244720789086,0.8748001434096131,13.67425863198843,0.6729497792845491
23.55784632234523,0.8736032776241722,13.341407649921795,0.664573118891332
23.955127809634448,0.8816766803944628,13.088887791082076,0.6614307120379304
23.944539429274837,0.8795295946233902,12.7867118830496,0.6500573940000963
24.112546365825125,0.8806219714225877,12.647856261947517,0.6438074700642308
24.532083651094677,0.8801138022369234,12.339542194763958,0.6345088735710622
24.67131884679186,0.8849567297988082,12.024372516267931,0.626712336577626
24.808916888411247,0.8952103334279631,11.880697866220038,0.6255680030463932
25.154103726480525,0.897447566927588,11.821317948067014,0.6210658251793615
25.309925446874843,0.9009117557629442,11.5607758005075,0.616439428046786
25.50423471574307,0.9084614868589633,11.256008004021306,0.6123900433197963
26.065273782344878,0.9083021770608,11.01751756026938,0.6009099220751428
26.241207205253716,0.9194438428875058,10.851673031877171,0.5980339742580119
26.268014173284865,0.9221295001324709,10.698446898422548,0.5935524845532555
26.32281441309224,0.9211986863402302,10.657642098379807,0.5892795466549389
26.469993527659682,0.9233200334672947,10.466894754602729,0.5865924308151782
26.69007383489008,0.9294539813059748,10.243142034974161,0.5832505159627686
27.129685841134116,0.9314476250022378,10.063178730657318,0.5755053025659277
27.112949543572075,0.9373923533642126,9.874878369833775,0.5713483810730225
27.417866874983385,0.9379638039799897,9.756482497751428,0.5655233746510673
27.583927755526272,0.9425029101387179,9.497010620015473,0.5607089180752761
27.696974420505168,0.9416868645412829,9.39009414164796,0.5531832397138562
27.893688291802658,0.9463458796583964,9.291384317783757,0.5510354606778389
27.818412023146443,0.9464119956328059,9.115837278061889,0.5463950582923714
28.108820334713283,0.9521101280560683,9.054806311904178,0.5450535585286935
28.3079030301065,0.950195255268632,8.970279137208294,0.5393708106934202
28.565597737849785,0.9559601386197033,8.952682992755092,0.5387669512053636
28.65495916675996,0.9528085994696908,8.954665571448366,0.5347836221183678
28.548722819698234,0.9591635279730383,8.976566175696579,0.5383615296784495
28.800303114478645,0.9564289015752011,8.858197433281347,0.5351633915037205
28.921779049980447,0.9669281753026693,8.75180247333419,0.5363413041590765
28.796515533808407,0.9661933769603736,8.782560282713476,0.5341195660390203
29.150968767119398,0.9676365445574804,8.819522459057996,0.5346604607775941
28.91656857709919,0.9694684336979699,8.81354848184485,0.535556918801402
29.276955435554154,0.9712657064485811,8.85551326059818,0.5365001933441813
29.44981220313156,0.9716392887242068,8.83997866508249,0.534932313242406
29.553906871522365,0.9729128648878947,8.87728202609805,0.5345241653164745
29.8191761416562,0.98366534773322,8.895735457159654,0.5395458638924819
29.772211961739245,0.9796285408069428,8.805524438795247,0.5354746645999693
30.02788995478879,0.9805372927040026,8.894658424177914,0.5347422234586601
30.24706075494279,0.9831087961006301,8.932984606138408,0.53584027126808
