$D^a [mM]$,$D^a [mM]$,$I_{islet}^a\ [pg/islet]$,$I_{islet}^a\ [pg/islet]$
0.5188657031175277,0.2104788819084548,3.0414065363314333,0.42172426283383746
0.5683214146234977,0.2532728783713481,4.0727097856794225,0.5997634880561159
0.6417686877882347,0.27187484842032117,5.101212035696495,0.7186217002239723
0.7333121299311306,0.2888368317177083,6.127383517556112,0.8090074310085266
0.8326162709152861,0.3083148568626618,7.1156635481098665,0.888629801634314
0.9505193302913851,0.3322541449134197,8.06018235229177,0.9673816106405021
1.0721431565134456,0.3527731102842093,9.057627909241262,1.027186107372258
1.1984880110860532,0.37207571976250314,9.997982986919185,1.0806093384076914
1.3437705281665078,0.3952542957073295,10.801638268217422,1.1366047589830817
1.486301305772635,0.41897031032257337,11.677886132347261,1.187568221255226
1.6303546642168147,0.44059773050594625,12.689699647078804,1.2373316749905996
1.7866688113062468,0.462708785782464,13.48786925434247,1.287525359180155
1.940265682099476,0.4828958688437276,14.395518518107547,1.3278029385941017
2.09936257889163,0.5025634436467901,15.19711943129806,1.3674601096848589
2.2713411706720676,0.5251005047483531,16.0417065574575,1.4116678298822598
2.445317819932558,0.5410996650469823,16.96802159067568,1.4387737414455533
2.620883564251406,0.5651170404235284,17.66688893078885,1.4859415356874186
2.8001197036997767,0.5833427479593433,18.432159436413087,1.5139114607178912
3.006361956237873,0.6019819788761707,19.379852542134422,1.5442110374868838
3.188375081656714,0.6254997118472929,20.029573464083306,1.5862888478368224
3.363595314576448,0.6429702131625726,20.69531461005955,1.6113327433982905
3.5689295022775536,0.6608891003710937,21.47419441517583,1.6381884168469203
3.7911336179994484,0.6867714866056724,22.174932002619588,1.6817529172267118
3.9414478920611637,0.6973460031803718,22.622805786745307,1.6870524066507164
4.143319669533506,0.7132439023385728,23.1362732706614,1.7057846941971229
4.352681341860327,0.7352544711416669,23.634541718881753,1.7348614793266577
4.501041856243147,0.7509467847668145,24.200290720377343,1.7533497436065473
4.724344212392196,0.7646075089295973,24.939671473771334,1.7718522801879575
4.918884774276388,0.7799198367346144,25.24945437543561,1.7882587243233996
5.124723891527636,0.7994729555407517,25.618357495129185,1.808981100501587
5.322850173583757,0.8116875838387932,25.96817558644255,1.8130392456403033
5.55487605331817,0.8364050472449405,26.325207005135265,1.8438822269808488
5.735344448759734,0.8472074290709297,26.839828617930078,1.8466059264604562
6.0023330026030886,0.8627532961047695,27.24533038444057,1.8610333544842221
6.232952138168758,0.8792886807592193,27.999542024761816,1.8763652740975882
6.472322185833966,0.9062860861457378,28.50445086816094,1.9191056224652068
6.717239869297655,0.9149234894667673,28.621259249546526,1.9140450110758116
6.8740322278995,0.9292592640302736,28.91335169414497,1.9208409552087404
7.062094349795959,0.9461028119110069,29.297323859991675,1.9409820152800688
7.25648121966678,0.9577174147899148,29.765895546559808,1.9520151667949144
7.498074381706693,0.9709580986601726,29.74130249808938,1.9594584488335354
7.68872480631152,0.9794974368795275,30.000168079681043,1.951956726618364
7.86810805945572,0.9935420726796829,30.31303904355237,1.9638513467169054
8.116351308395533,1.008390810400177,30.477140232622464,1.9752057246768395
8.358057549223902,1.0199953502397834,30.477536827824387,1.9721939690971992
8.550874924442468,1.0357922143456781,30.89139604477897,1.9814962950750592
8.726381821207031,1.0500439598061375,30.960421349118416,1.9943949587844734
8.899823931793415,1.066875928261396,30.887634182925595,2.007235753611735
9.095948749737344,1.0730518785463754,30.81260547199867,1.996234600720225
9.24809945783051,1.0860438373948174,30.658390397181357,1.9973793251415461
9.40953293118031,1.0883919300234617,30.51114449021186,1.9796958706396648
9.629312170273355,1.107888829511589,30.560081255233026,1.9932784204145024
9.823446371602218,1.113452454845341,30.7423302798193,1.984455761719939
10.068438021818661,1.1342313544994986,30.538175076994012,2.000394954806549
10.36127673288828,1.1413993912968943,30.75370915345263,1.9866768528072016
10.556273358809786,1.1568218726079305,30.551237559967714,1.9899889534631827
10.827601156275907,1.1706124373398392,30.566242445043912,1.9887191008222158
11.007307202651466,1.1776442912750817,30.323317786171014,1.9760747224027693
11.112115557204135,1.1935793898349878,30.114624520768608,1.9815165411326414
11.32913284723903,1.197689011855466,30.022694838261547,1.969050901641512
11.499293877130082,1.211287743865824,29.850822684195506,1.9704187468857688
11.75442814338076,1.2185883691834913,29.919519323743124,1.9621231184377335
11.926119205185028,1.2317402033367448,29.803737238798828,1.9643672916733437
12.152271216209584,1.2387458584237887,29.603924387809045,1.9546179409957671
12.411815976232942,1.2556650681612047,28.985504336886557,1.9507896283256319
12.630281624386962,1.2652222719712238,28.96602625276346,1.934727992411988
12.90572318595843,1.2861997573273796,29.119319509279133,1.9479128415262985
13.030756787023519,1.2908604920083153,28.835347385369282,1.9374755038243001
13.159223042390591,1.2930919954919966,28.556647704564178,1.9222299232661577
13.395555564625456,1.3142203205013043,28.71799799670517,1.9374014426203552
13.545417182168109,1.3131926470097728,28.357897889816968,1.9192803906066558
13.822930987093224,1.3298775987373983,28.06101327134321,1.919167012812898
14.11581932748897,1.3489006016461114,27.730207380058435,1.916908714106218
14.291486922656576,1.3513917589704108,27.315200879393817,1.8913125633856902
14.584158947445859,1.351569351737137,27.18104868785692,1.8661590921981726
14.893356021479542,1.3690165901706817,27.0098133891139,1.8656700685800618
15.145119158519538,1.380231419406168,26.656446842805853,1.8546984142634853
15.261828984317535,1.401748903530971,26.39674586092423,1.8602128794277237
15.48971950980299,1.4085684069458813,25.959145827518835,1.8470705344427014
15.620746444207992,1.41135753810475,25.926325572121417,1.8303854696812525
15.94110353401709,1.426439871494428,25.921557407764734,1.8355901916466983
16.181314936420325,1.4350656076435315,25.54522770242633,1.8253547011158897
16.453933668630157,1.4549910860506978,25.394340956188767,1.8268039005301573
16.48152225724905,1.4540821082847013,25.125289158975846,1.8081405941086885
16.70944294493919,1.473477637609559,24.951008553295306,1.817295825054036
17.023514512103397,1.4854526181360195,24.767534218280446,1.811878616298967
17.202954400117346,1.4837039574769935,24.282986917845356,1.7853872319966377
17.566071384580802,1.4927922581697453,23.73275448975114,1.765244356205062
17.857393964308955,1.5078531165235,23.276684113066395,1.7482586112024936
17.93533466721016,1.520191021052596,23.129932532737232,1.7391031627223619
18.146114498619514,1.524010688392491,22.95753761004962,1.7293893832170846
18.404155234419218,1.5298887875600644,22.54242398566678,1.7155382178147032
18.563091528524396,1.5433495279835914,22.16921219883888,1.7062710361625957
18.705592266084583,1.546456305972596,21.87581075866978,1.6892212205702597
18.88808498040405,1.5564360102866193,21.622621653732104,1.6819286029054294
19.212643274023478,1.5633267335581247,21.413465606378473,1.6696636317840736
19.391319225337416,1.5703214199964382,21.393856251258082,1.6604755723918785
19.575126160860613,1.5901283173920764,20.864081595119544,1.6640656197574515
19.88737373013096,1.588971982392113,20.689115566903585,1.6391058902193945
19.996268723940712,1.5949349324190498,20.4221035744157,1.6266919137503368
20.37605652805556,1.6100113679566592,19.899876608224357,1.6184273531459978
20.63887020782274,1.6211620889390619,19.49930286359624,1.5989541847087843
20.998314590741654,1.6390718217481137,19.226457623120435,1.590075049094848
20.967898839004604,1.6487058962269288,18.80184119615099,1.5774305385674807
21.147825387096308,1.6562946802125902,18.519035950582218,1.566613020251281
21.328009143424396,1.6550407212906155,18.22059558870351,1.546762610400902
21.629837237193204,1.664497494599569,17.995984705240144,1.5361030936692572
21.775453213397107,1.6762133045325305,17.59054811663875,1.525875491194271
22.049649677873717,1.6830449108115941,17.417255974865853,1.511909446888918
22.300666046614626,1.6881633892906003,17.165818051863912,1.4982045294617223
22.292657325663026,1.6930629622095053,16.913242223926485,1.4867106034850168
22.3992672326811,1.7022088474442154,16.524280492649154,1.4794035579380658
22.582506792349605,1.7079086631188534,16.27341836751033,1.4657591637712946
22.70084341337516,1.705705578285788,16.15406263358227,1.4495875419618083
22.75391532823882,1.7155423285143574,15.802122640791657,1.4448898710847888
23.15589295402962,1.727256495551388,15.558612895837259,1.435371586213485
23.58872531972607,1.7312548075358,15.08416570516107,1.4111609617386545
23.429501865586918,1.7418615916136404,14.845086538274781,1.3972073638424463
23.907051479387277,1.7510419728871534,14.626420848557963,1.3887805728748304
23.903772794356613,1.7575712283855027,14.378017971381926,1.3758444973421222
24.12331912128877,1.7596423066699571,14.283540060626091,1.3652311152259355
24.302565135088305,1.7649926087008163,13.921770192465628,1.3538739376180375
24.464500675154493,1.7719947080914833,13.524061553913745,1.337314013592713
24.305892192933687,1.7731531200578194,13.27732825392615,1.3209246331959397
24.409289730543243,1.7670870790506865,13.014240268664137,1.304162983066132
24.419944373742748,1.7737989389611888,12.708460847919648,1.2939769399620318
24.514572254991986,1.7878391930617437,12.515070813529737,1.2898881810961917
24.465533211024148,1.781981862182524,12.292909274157633,1.2739395912968698
24.59994724965201,1.7756638745478166,12.137500221173509,1.2585593343534398
24.76952482762348,1.7805720137563523,11.878076308463632,1.248233549820398
24.965641737373343,1.8007905640335828,11.693651654842201,1.2463659015479924
25.039339630443145,1.7910466588379153,11.464189880636235,1.225066263877014
25.154948622112407,1.7931251239993418,11.238250732254338,1.2121754195081533
25.37497131830815,1.8078226101557238,10.974310325291839,1.2055027581654125
25.46793924189206,1.8046050557811744,10.793764067257237,1.1871970258202293
25.59060915271108,1.822403167355117,10.59392388245553,1.1855994988895484
25.76201982113417,1.8263107223138175,10.469677352275026,1.175417518274571
25.735550240844663,1.8237243468770212,10.243057493004839,1.1622455017106637
26.056385253927616,1.8302467020915594,10.09881907567855,1.153049219018433
25.97147549305424,1.8312262173258766,9.83115912504991,1.1394662602276846
26.157201487628942,1.837186345935356,9.696544045807949,1.1302464090929962
25.897977230053478,1.832701760691849,9.53166481531452,1.1186951773159495
25.903276878426535,1.83148826790791,9.364849682914429,1.1109863188506284
26.00954854560916,1.8210875616133986,9.154861754477052,1.093370972108316
25.94522691266976,1.8393976113615376,8.963609739866978,1.0921017663398873
26.026744978425615,1.8315485632565898,8.745913422523047,1.0750543873692104
26.299972726011255,1.827464913624449,8.583223450628783,1.0578728084670137
26.48564680271525,1.8584111879327438,8.355847467237503,1.0594806718575012
26.751064258142666,1.8531389112315781,8.163602722442583,1.0389472837371738
26.78555796708476,1.8649661506309605,7.963779277748792,1.0299250710373278
26.880772924144164,1.8562836644959961,7.894973797305981,1.014297217249678
26.886331821863436,1.8608796466805584,7.706498031710586,1.0076005428990698
26.98127656068233,1.8638003418722626,7.466922415993602,0.9953129737090864
27.08002692302992,1.872641006835115,7.303431944466232,0.9849882614873781
27.547662001194364,1.8788738101472116,7.198942218679681,0.9739926833374739
27.845060730054733,1.8842072017337868,7.024953601398823,0.9609257800000489
27.933081895269666,1.8863194258209872,6.9211400267778105,0.9486586845526147
28.16080330555448,1.8967309171004358,6.853751017476173,0.9446539399763222
28.401285167089636,1.9202251655809022,6.789968336707957,0.947663499643406
28.502535852818852,1.9127729924684078,6.764234110752455,0.9375495897696194
