$D^a [mM]$,$D^a [mM]$,$I_{islet}^a\ [pg/islet]$,$I_{islet}^a\ [pg/islet]$
0.5180583278778595,0.24263704973078218,3.0404909288482025,0.48580482068284675
0.5694343229770888,0.2953341588798305,4.074087351936529,0.6990947925184315
0.6388282610671744,0.32001582634105724,5.081498255686333,0.8454763422294104
0.721300436415848,0.3371558602360811,6.081370685922099,0.9460396104757781
0.8190072774990657,0.35804494967732564,7.035131793515196,1.0352959864051587
0.9164448023959848,0.38315152874351105,8.012087621821,1.1238414605579248
1.048825908902225,0.4072247017564954,8.993715487621158,1.1989764415339714
1.1916464856408469,0.43189970138305284,9.920365742436067,1.2604499843528407
1.3251456537144335,0.4617673656791416,10.891697662243029,1.333801615879545
1.4690634321981004,0.4886789732512878,11.837109608710525,1.4001386988942102
1.639178686170036,0.5201746681721592,12.69467041691948,1.4708181536239677
1.792683164607597,0.5425145993873025,13.70041297566197,1.5127644724945517
1.9734526766893639,0.565232166340424,14.46058648675736,1.5555908479080183
2.1397988283972444,0.593182658532061,15.200717281157146,1.6039464600350444
2.3123897324667104,0.6191157740007139,15.913077714777952,1.6474011451404278
2.488032598231648,0.6444567865200723,16.7517501638813,1.690705343551845
2.6506037687729345,0.6704771064482046,17.535407579014173,1.7404246393704323
2.8165966401148195,0.6895922124035347,18.352793973244577,1.7746393258006443
2.990518294523198,0.7074979501323203,19.22095495682628,1.80709329540255
3.1984186327302755,0.7320480634730259,19.896219442741142,1.8504055357724263
3.3911337729261204,0.7529786466139089,20.429431703278766,1.8743255122265319
3.5678751867465914,0.7755136772657661,21.021100506620904,1.9034228886443103
3.7910278333856726,0.8011282032666783,21.492350328352156,1.9376153605957829
4.077891546961153,0.8269070156814868,21.937679387468492,1.9577818750005413
4.284899680653033,0.8520290976143555,22.686345991608942,1.9800846831020427
4.512138130825995,0.8800185756541882,23.354220086396754,2.0229571096444996
4.714916771679579,0.8982465535946947,23.880328200833077,2.042050282195423
4.913536506878493,0.9196659787422056,24.101957408312106,2.0642465621788144
5.087626996996782,0.9407295882301464,24.82339452380894,2.089152385563275
5.2373443880061545,0.9534533505064472,25.197679866580643,2.1060260432038462
5.388480006980173,0.9686230971511394,25.55055387155549,2.124879061782155
5.607719999041871,0.9822264124604513,25.744797802550504,2.132017998192991
5.810986445315557,0.9995218176205111,26.362310847681563,2.144655217894283
5.980813653211359,1.0180290311145839,26.893276682472465,2.170921641402848
6.164976367389282,1.0296111636332306,27.211080799203376,2.181316449691056
6.344192841983887,1.0499901517563381,27.72013464776985,2.2081664236744607
6.611646532674455,1.0710046451166961,28.018659373740793,2.2317942747990487
6.752991552485601,1.0927019572279952,28.112933962096253,2.2500154854438628
6.945343035012411,1.0999489474525688,28.4338565804147,2.2440832598623794
7.090815400239653,1.1108015592206901,28.732190029914257,2.2498376701230125
7.307435797391933,1.1267440398856963,29.189694536989432,2.267841194379879
7.551419667499179,1.1407405694828248,29.28714512965876,2.2735726191951313
7.794136495763575,1.1652417121117138,29.09363288428146,2.286489031068803
8.019632142468119,1.1838847163879227,29.130107405919713,2.2846903156771052
8.328520437508509,1.1977677507942108,29.223399367776132,2.2759031446492064
8.601270274969568,1.2200950570457678,29.394924367610294,2.2828000275760303
8.848626840406078,1.2339073024236225,29.346570131685738,2.2760619747375745
9.041535052477503,1.2532452905102975,29.497999884186743,2.2834290732010714
9.258176496985582,1.2734133584218978,29.794825686793484,2.3008857278984896
9.41356013283294,1.2926201583399217,29.874912450793158,2.319159389976365
9.676613589549332,1.2971935525670177,30.137073879661333,2.3088401136937797
9.886890194524735,1.316803469713149,30.179352404286803,2.321906367006976
10.248419152271742,1.3302718842033643,30.413209417508714,2.3187095428981235
10.399248397641147,1.3533125731083224,30.44273501649582,2.3333168728192035
10.578164121686008,1.3531256702814798,30.62884445582002,2.31683570843377
10.719317275091605,1.363327163414527,30.72839534457113,2.3215002968414895
10.84502217460326,1.3747197103657003,30.87250916006026,2.3303476952776547
11.08211107188501,1.3908171019293685,30.88673601260966,2.3428155602592993
11.336412417754824,1.4069031601482438,31.012918592917316,2.3475255563908233
11.589713109156571,1.4162929269079585,30.89669688961474,2.3380454631695913
11.696774707543765,1.439310850214417,30.847036387531368,2.353047154832088
11.894111882703857,1.4509213655878812,30.48971564910023,2.349955024951283
12.196800434892578,1.4676108187615446,30.245489518326227,2.3429615384804063
12.48196318849539,1.473968512020673,30.358373319313966,2.321064840095323
12.734001523775923,1.486680409957166,30.482459027542482,2.3187849116432058
13.012386598799678,1.5059908841543814,30.178377219557188,2.322881369761545
13.229349171467153,1.5201123097377864,30.12447555145776,2.315250376064982
13.363978921421694,1.539593100381605,29.881403575636263,2.322386215745038
13.62572210498119,1.54785588907899,29.90440568941099,2.3131990396394344
13.964782160966971,1.5630320286066215,29.91457946409732,2.3117667230277514
14.215378406256221,1.5761678414855047,29.581346375062157,2.3017170504422326
14.369582563408503,1.5956284081523087,29.262167295399028,2.300427789253223
14.666690797964343,1.6058697923652467,29.02621348354205,2.28652311477232
14.764476348896588,1.6149635607433057,28.946322931257424,2.275754686482328
14.910123156324863,1.6271183792790973,28.780781873817823,2.2775597610459823
15.050339043067991,1.626439593436592,28.482269142248388,2.257489813786027
15.294129797307619,1.635911492602204,28.08366405052801,2.244402209190421
15.659868226941036,1.652783342414493,27.873841854321274,2.2342840382145384
15.94993612781887,1.6687911097374408,27.193591378873197,2.216424095696587
16.150350263100712,1.6858982314216355,26.894079224693467,2.200816601795586
16.28651750562624,1.6938741621895481,26.520214137284608,2.1840298697622034
16.55272836487095,1.7017573166982751,26.438713892714397,2.170622999661185
16.992089558752063,1.7236074309379388,26.0187985641437,2.167655946396314
17.20059633111149,1.7447143635469526,26.015239124933487,2.1628270067008253
17.52039892076621,1.7517641973274025,25.87491285498296,2.1507960564149884
17.915187093040178,1.7629104589677769,25.360787960636973,2.132072453317465
18.200376031393365,1.7811456018233085,24.848775320420767,2.1133920010306295
18.521551850120805,1.8071950333992923,24.48160228729568,2.1071350414333345
18.84650965723568,1.8142069103390888,24.001179361073763,2.0788777799782
19.06600255477714,1.839450535887542,23.71577395132877,2.074861589168822
19.43098589699364,1.8527937298327997,23.451515913288485,2.0615507363237753
19.416427307827508,1.8647336203675353,23.0683781473867,2.049790125091738
19.55411511036169,1.868289328996775,22.721803195387317,2.0339001379150603
19.681821567613706,1.8632934540837267,22.256865913830598,2.004547681483675
19.841615605592438,1.8630647037972499,22.005889095908323,1.980685172585396
20.102926104890596,1.8926498643775131,21.572905532775074,1.987142797789677
20.351548033156572,1.9059525043517496,21.335295039950054,1.973021699355272
20.28456796781564,1.8958300830225876,20.99202724051824,1.9429009313269643
20.35540435054136,1.891072750994993,20.59058478572251,1.9209697037498388
20.51226344922205,1.9000987265818339,20.240928335443616,1.9082900834098138
20.723401171365076,1.9086844890173922,19.813432359233623,1.891106968630441
20.890867582597565,1.9244550069742137,19.55740950176432,1.8813103015083932
21.072912431442887,1.9268552275724549,19.127904487050817,1.859608490322322
21.25704345687147,1.9359054380019496,18.707725337022158,1.8404166898975312
21.457914692055645,1.9459149144000818,18.522876270235503,1.8257461239276171
21.6555633876656,1.952336494115728,18.351280938944065,1.8135388446561542
21.56133900111448,1.9625915483102034,18.210062456265458,1.8112559033160727
21.689116306280834,1.9614271925981983,17.824033842132266,1.7976754855795483
21.84994855503775,1.9628070021362916,17.54552071595104,1.7776900050534232
22.030627034719615,1.9678371963237318,17.225842205638546,1.7605317000795995
22.268964266188664,1.9839569259761556,16.932418938922947,1.7513467750864227
22.34247624445267,1.9885265489920927,16.742978206226105,1.7355803174017892
22.66895201557566,2.008354695790167,16.566957451591062,1.7357020440832134
22.88100453908652,2.016911451881432,16.238826517958696,1.720571876402796
23.304574247600733,2.013291701999723,15.857101261619718,1.6885990709596732
23.559451400352543,2.0358953497958905,15.476193124209903,1.675356843735724
23.640208002176927,2.0430890071147374,15.203190125956658,1.6561435741455193
23.67940172332784,2.0611174087111075,14.84883311088445,1.6507981644129655
23.756312261953656,2.0636898213591333,14.34469546806356,1.6282970052503523
23.766518164634487,2.0515508050769355,13.929702625470473,1.5917778294883131
23.740712047237274,2.03402770725302,13.61605613661935,1.5569008337637
23.75202909615009,2.050077758731628,13.330249486520412,1.5518114138162775
23.92993411133848,2.053473756212645,13.119097928397412,1.537047271384812
24.22282219226228,2.07615990804211,12.844936698819634,1.5331530239556979
24.382745243988314,2.0819259094751583,12.495522956564994,1.5123840616049569
24.392916014734272,2.07638230960567,12.336625691668914,1.4890307974878145
24.381107119850775,2.0856198201732203,12.111653261580688,1.483166769692881
24.370157222797474,2.0850645056289223,11.717988655894391,1.4655487021259748
24.5481304519987,2.0771622731975627,11.438286283640593,1.4376215444333902
24.72456970663068,2.0902172506345695,11.313709822796012,1.4279486437334632
24.64001140443762,2.096486404302497,11.227417048617255,1.42242620354094
24.618765667741204,2.099279968745688,10.915574401127039,1.4139863930322316
24.782921379992985,2.0830946384803415,10.706036572497002,1.3856002910847882
25.051414282801836,2.0997675809488046,10.344840527294616,1.373746704263509
25.01057502975831,2.1016566827125103,10.214496888325248,1.3544099455577148
25.452066735848067,2.111091572021148,10.028874766319007,1.3445860047407057
25.63420726128901,2.112387163549029,9.835927002675659,1.325104487378229
25.562377340114622,2.1355173778216114,9.713245844899117,1.3259855660256605
25.839256513954325,2.1318324330292047,9.516257344361685,1.3106489875597291
26.150778880043372,2.1503210838071913,9.27266239599633,1.3009330888948778
26.25701038718517,2.1534788583071824,9.182893516223608,1.284939734045579
26.235500461821875,2.1664380328794177,8.973970184679446,1.2805057771460653
26.536864530504605,2.1668990575546063,8.848519180993433,1.2659449873458246
26.554455815108152,2.173831633447285,8.697832373844538,1.2560615155975559
26.70281853150945,2.1615612689675907,8.491073975628463,1.2346606676267862
26.825893408725697,2.1822294957697297,8.392208737080313,1.2319719877357473
27.064454036508877,2.1843320374477546,8.255284078389979,1.220376086907281
27.31558834124406,2.2001124172787327,8.076029903140428,1.2126814440430425
27.51383231109986,2.2012090199285645,7.906476707852545,1.1954468218369623
27.456878964927537,2.2072031918254402,7.831663997068195,1.186665044188578
27.410389234655987,2.198333579195384,7.684802885906058,1.174231660440439
27.247546525957507,2.2165603080048664,7.470604544758328,1.173159692791787
27.181885505639002,2.205072431956461,7.366494006238188,1.156872794963724
27.213217042509914,2.2067622453430156,7.281643845876739,1.1503505904262903
27.244939379911916,2.207132566709069,7.140252858690726,1.1414181257569196
27.36421035240076,2.2188722700338173,7.021755287410995,1.1359700904169234
27.267082881231037,2.188788209315149,6.883901261861967,1.1100064958462015
27.549722943378086,2.204715919249147,6.820593308903268,1.1079671554265547
27.726668233211985,2.220050003136167,6.739220353894401,1.1052298089437795
27.803288307734793,2.2238284359014853,6.5734491565033535,1.0949715218522573
