$D^a [mM]$,$D^a [mM]$,$I_{islet}^a\ [pg/islet]$,$I_{islet}^a\ [pg/islet]$
0.5186959520581799,1.1871674943351695,3.038482225790803,2.3743382247695943
0.5567766922411921,1.4981857332406423,4.07604105812675,3.54125052875344
0.6160534850452215,1.6007877501758245,5.111446246863759,4.270108621258802
0.6928439290250747,1.681202789770065,6.136625948624538,4.8020680475252275
0.7849905822556944,1.7881681434472014,7.143922534238456,5.291162051156006
0.8889301526465144,1.9070244119940098,8.144016006051187,5.732140398441659
1.0031832135725691,2.0281463439131007,9.140769539445488,6.12365830858576
1.1270801062084777,2.15775319625927,10.108462461411634,6.4981238968424435
1.2586656632661803,2.2813623026593937,11.069168496373353,6.8208240770235555
1.397603121108064,2.406587915184977,12.005935231244496,7.1251490243774125
1.5435729111883911,2.5449554053618297,12.929546706040075,7.4484004237806385
1.6952478775733537,2.650175335405213,13.842822686457412,7.660687190003686
1.8521681190655306,2.7957382277895997,14.719854187640106,7.978387760488098
2.0139244662532922,2.9132338845883656,15.584313378558695,8.203265313676916
2.1819351847350497,3.028143216312335,16.44583353454556,8.414371035496204
2.352144621794789,3.1670683503359265,17.263090772417257,8.685037593015625
2.5255043033927667,3.2824878766140864,18.062385861984794,8.883051947751182
2.704444926624726,3.3981277756571324,18.852341753410734,9.07772004648741
2.8877387878107177,3.5462653964463233,19.616366317275613,9.352796596464815
3.0685320059139554,3.6233396805010964,20.33813013574681,9.434296330538151
3.2559466249842743,3.7349720427019806,21.045772440515638,9.604870536504595
3.446458935926452,3.8689219341716994,21.732302083740112,9.826143506684723
3.6345040969619626,3.976427398513962,22.40535418535456,9.97834455446768
3.830787035951234,4.07446132401475,23.07428704006756,10.10622742273905
4.026838168305168,4.172339201740589,23.683589025306176,10.228511296803495
4.22573970340261,4.2948938309712945,24.278493434866878,10.405393790496698
4.425855205402437,4.3777779511530595,24.851624583061728,10.482757090739295
4.630496319246025,4.524762432495318,25.405895104810885,10.71084359539274
4.8324725869195975,4.597347130285479,25.955687779750292,10.760055524352213
5.043284191846722,4.693298862158208,26.475491776897233,10.864193660346425
5.252433239686843,4.784189852594453,27.0103076677089,10.953710038243395
5.4636913753188265,4.936597900393567,27.5018441410369,11.18446984660748
5.676766771457263,4.988181565348324,27.936276927359643,11.177353194730951
5.883536908751283,5.080495109456152,28.3694248277106,11.262374353005717
6.094061650033091,5.198132022582457,28.792667305436748,11.405081214347785
6.306155140850072,5.283086041086088,29.206195051605825,11.474390492129972
6.523388243850538,5.3700155152622795,29.552644953826444,11.542289123352395
6.737094407173358,5.427875935803277,29.908928248544562,11.54334709405683
6.950689017061609,5.525050558218945,30.252640474332022,11.631960381870275
7.171173601620023,5.621723393460893,30.56379204555809,11.715637077092666
7.391847900524112,5.689995403398888,30.84146341073231,11.733794099469637
7.608875752463781,5.786281889863341,31.14386026909146,11.811043002777764
7.8250682197783465,5.884657068291226,31.39444050418958,11.894058814608247
8.04165371996097,6.001573727993541,31.614705506453564,12.009291177036486
8.260817036888758,6.056527512588627,31.8183679795298,11.995974430579626
8.476533417541718,6.151092426960896,31.99766228142136,12.060153835652345
8.693532627945224,6.190437174906239,32.161468832068934,12.014802546735803
8.916271203776926,6.3195195811837745,32.3303380544225,12.142924052627617
9.13705237517597,6.362667281509518,32.49804421539348,12.104578544068161
9.362929233928208,6.490169733740183,32.61064975148777,12.224942356874111
9.59357601887415,6.526152587270675,32.75421229709951,12.167135535794493
9.815435558456288,6.612752393780637,32.83894878786094,12.2053880572949
10.04464626958534,6.694711812925341,32.933013504144476,12.232001732397004
10.265606487612184,6.738881489950113,32.98524543083927,12.188404399372397
10.47980049715907,6.85364332693374,33.02825007097581,12.273844153018624
10.704541691159227,6.901369908355614,33.07139634622691,12.238010265123073
10.924997650104514,6.993870851503258,33.09362738419594,12.280154806352671
11.153587118458015,7.045240276402219,33.130419429938804,12.248794023339304
11.374348453827507,7.12783274348457,33.13500334106733,12.27192449011962
11.600356609179462,7.1792508803170945,33.11774777840552,12.238398907515394
11.829567547076278,7.278600123344249,33.04442888290948,12.28028208930291
12.05483061338822,7.332898404116078,33.02611470745729,12.24357078153258
12.285484205691525,7.452885548839402,33.01852251959036,12.323385876235653
12.501825254146624,7.486604778393846,32.95009120265692,12.259068610879542
12.718354659093523,7.5250150148691795,32.872346918298845,12.202315085641597
12.945055772142855,7.66449401608883,32.83646363839657,12.30994941691176
13.163353985619231,7.669407075818811,32.731034343409036,12.198739186384225
13.393844407839829,7.774340885254821,32.624222511358575,12.242459887022745
13.625651607560819,7.87551393667444,32.50587036978345,12.274473194623084
13.845898890480141,7.887063500466292,32.36986102255124,12.166148028089745
14.077250649559343,7.888383409924349,32.25933624972364,12.045999323889127
14.309985978679581,7.976517783414584,32.13589388417761,12.059044970481695
14.536863286748073,8.029711279536162,31.985131840795567,12.016806145321883
14.750527949153165,8.1615693348192,31.837318241434556,12.09280547293319
14.974564430618315,8.216390924404848,31.662852086522715,12.053277759636254
15.188887954469147,8.244262285440792,31.53227782915527,11.975892263241882
15.421273599022225,8.3371300108622,31.40008288428106,11.996997755211503
15.645526954529059,8.377698847305796,31.216783792423595,11.93696987768093
15.872533370148076,8.487640723975012,31.05603818203416,11.97384464316802
16.07559127125883,8.494741957344049,30.876175366243412,11.868526257054354
16.297493687550553,8.632248643309044,30.70459019944213,11.947680315503149
16.52744460704913,8.698388515680005,30.528191731102222,11.922268345761193
16.743846213752004,8.68239283490179,30.310547287471614,11.782083659742318
16.977746825061093,8.727920115201787,30.08225731475582,11.722821225717768
17.204131242681047,8.795084040072949,29.860629435487628,11.689468645198883
17.40937928736449,8.86976530673264,29.676620599169063,11.672991804701331
17.626929918652035,8.909516431002087,29.488158828135234,11.616684743810083
17.848642552677635,8.945329603392288,29.26574780277745,11.551471546959094
18.06021199974007,9.02631130712619,29.04689681626839,11.542116475489292
18.269646232411013,9.05835043264582,28.837679477247864,11.472371370237681
18.482430394129736,9.130434286677051,28.633012512336254,11.455525855722968
18.70862055520645,9.168230222006025,28.434070493599396,11.394520913036535
18.919955030486037,9.201964412206916,28.258430240655397,11.331127154563134
19.13128694201734,9.324272492210174,28.016015284508555,11.376571842804614
19.354601679570322,9.31450011502684,27.820988043860815,11.255718342059467
19.557532598308107,9.348607498049272,27.61156687168262,11.19318977921988
19.78641626030065,9.434829535098611,27.37106841897074,11.189971113925646
20.003139414102296,9.48050981774791,27.147673445808696,11.133617798679168
20.228655785792853,9.566869027764826,26.944125346867192,11.128514635682112
20.415942106752937,9.626050424908914,26.719790022333143,11.094691533695398
20.62280731351859,9.698398623803145,26.516868369022784,11.079118829170906
20.829087038456017,9.701355092963922,26.314620400113434,10.984489317740081
21.046684831997602,9.754952455821341,26.12522193733687,10.948289135645478
21.24840948934736,9.820010937924115,25.912937076757775,10.924325784479905
21.462042323489893,9.861582433904104,25.73792248550807,10.875497508287946
21.672778773043852,9.88296626549212,25.555833456576924,10.807113315375881
21.85778593565808,9.923673068366076,25.376502591602826,10.763071203311844
22.053261396805873,10.007598135769408,25.181120651431787,10.7670838418278
22.25560336635263,10.05743818764828,25.011048831226436,10.732572043617974
22.45100829725742,10.056139168371459,24.863742222118734,10.647956216482184
22.639419157835164,10.135601048143116,24.685740967812542,10.651389961895436
22.861935851967264,10.207623079861248,24.53015004330336,10.642891939255795
23.086845603123674,10.195476232116443,24.344359100707294,10.542005487703502
23.25290849995969,10.259587221504496,24.200167775756825,10.52588463548814
23.4812036956923,10.327100978699592,24.065067406905243,10.519126571156512
23.661218640842815,10.357914257532501,23.9313986094916,10.474472558262153
23.86262876507434,10.386804491596886,23.82963392749677,10.434318345368036
24.059629283581003,10.420472836937797,23.686808723259876,10.398081998172335
24.25435519880956,10.466929971455182,23.546225554729087,10.371182968940879
24.417024374986987,10.504661949343095,23.43685008310083,10.34091897433882
24.604995972002893,10.51282683391646,23.33135582334336,10.287206491823207
24.78315107253497,10.581343637757497,23.227144719141652,10.292469710157542
24.969252205181398,10.693944885357357,23.151723871498625,10.342849455561243
25.140313768636773,10.690364268192738,23.079940849806672,10.284508868083899
25.329726779332255,10.683424183624997,23.026629415772014,10.22645237012193
25.522413088307143,10.723834483788053,22.960614087675854,10.213389653846932
25.717513645019555,10.84869951367236,22.918386423887878,10.28057097167053
25.89959453582991,10.798247776090573,22.875943898137482,10.18440361845926
26.085811235491526,10.827713849138496,22.84165936757657,10.16694647637381
26.28252207636441,10.922941852011856,22.8101950205784,10.211256570237591
26.465836698827584,10.908672642447408,22.80445007366157,10.155543891290087
26.6520123770249,11.030127493101572,22.805740511532466,10.231381415634637
26.843129780680112,11.06291846794206,22.832021178606198,10.227321771059945
27.01342617798761,11.065175728233712,22.846959966649532,10.198600350505291
27.220160707739428,11.116663505060918,22.888714991796693,10.21641779414806
27.384174723346106,11.131270049496624,22.91236212105992,10.201543237999426
27.57666114892176,11.193437026176955,22.97741334220553,10.234060598455594
27.722485727036112,11.201935774221116,23.046556116603536,10.223523779417762
27.895937228766485,11.252947153531919,23.127019657051136,10.25636699707424
28.08011102518677,11.218611771394993,23.20878468820081,10.21013044340233
28.246101638482394,11.360616699691889,23.30912679898387,10.326710189488098
28.427762424260965,11.34573434798809,23.413373487003803,10.303139076512302
28.630981329716857,11.327158283145552,23.540161352539172,10.27659275414535
28.824643784614967,11.51020697300158,23.662322045823284,10.433778570175772
29.027143345796965,11.469340969134294,23.80726969152107,10.38921077238674
29.204809564735797,11.54419451780725,23.961751254687687,10.454482306426423
29.389824464740762,11.510662767286217,24.16834990451453,10.429035731828362
29.56525176016597,11.561703804334078,24.349160017539184,10.484528101019455
29.75073339025794,11.604663300419187,24.526648836886803,10.53032716603082
29.93732623067281,11.677192420579225,24.7433970508061,10.604646166890026
30.165805411431123,11.705194771674531,24.99022046353508,10.642192549906357
30.375431136822726,11.702208421042645,25.221254494102762,10.651516752500662
30.562768014399683,11.707376572988974,25.49106613357925,10.672835740185004
30.766236291477632,11.776371269283302,25.78795395565709,10.75965538580403
30.971690924202946,11.915047460839178,26.098921513449547,10.913449460632469
31.16242564356723,11.869465918285124,26.441343836495744,10.903555319433158
31.36634624807837,11.86037059944687,26.795611905764552,10.931810696980154
31.536267351402067,12.007571562913547,27.151483027444776,11.107068119912336
31.681163639817587,11.997110065870743,27.532203877611696,11.14344311787192
31.868478894493066,11.986203547899674,27.940344556979678,11.18338390703945
