$D^a [mM]$,$D^a [mM]$,$I_{islet}^a\ [pg/islet]$,$I_{islet}^a\ [pg/islet]$
0.5189532597911791,0.12126170367335642,3.037637481882063,0.24555880560561102
0.5689128901890165,0.13528554412113564,4.076035692593811,0.32199400272393497
0.6399690842440919,0.1439220722707646,5.105633814473219,0.3812974470864573
0.7282827657464558,0.15289408464576293,6.1283727442135865,0.42935856883296925
0.8298592444297377,0.16323363180031056,7.12950294291567,0.47190396928751993
0.9427603692489128,0.1741745110706798,8.11459892713311,0.5094380374170568
1.0638336821976646,0.18566215262811225,9.087275982489563,0.5440990637392127
1.1942497180700973,0.19689823470417447,10.048287554326413,0.5749048075677912
1.3333390880473759,0.2088034385028266,10.979611059578382,0.6049446079939338
1.4788145019860601,0.22084896384375788,11.907937004655471,0.6333102956413699
1.6284540165569072,0.23207618923143045,12.813798285703216,0.658158049005488
1.783322735556944,0.24246446629490334,13.677605561923295,0.6795058310542782
1.9430767918954834,0.25525751647508604,14.530276787636828,0.706446917924044
2.110320313688037,0.26675626368450955,15.365771824137418,0.72876859414978
2.27945958116922,0.27657724294986996,16.201358093293678,0.7459480787818162
2.456090933274934,0.2902389724134513,17.001661541388735,0.7730294216347959
2.632279978733901,0.3006090944030777,17.766138119068827,0.7903429772454099
2.813444452239244,0.31014165791105736,18.510213602003386,0.8050080021803849
2.9971116406784857,0.3218778209746317,19.21695432076589,0.8248642498085036
3.1874519592515504,0.3317025369106514,19.924758363006262,0.8391755513760099
3.371768623202702,0.34322911140590284,20.6187540826913,0.8578978642298036
3.5654857917173746,0.348400558306403,21.259743100413043,0.8605386014565208
3.761571590168072,0.3606025390352222,21.901032926828496,0.8798724773526962
3.9567332729847995,0.3683132861703564,22.503710431763007,0.8880240544102981
4.153810645741472,0.3811080622713126,23.097086229548374,0.9083044386305993
4.353495108377301,0.38892738368834473,23.67620509188554,0.9164862712361689
4.555304948398526,0.4001292269372476,24.200994776192154,0.932262434290884
4.763812936187994,0.40844079350725226,24.733780352776627,0.9406165353092236
4.965915794913277,0.41600602320373925,25.23472383276474,0.9473424201328601
5.172446507929793,0.42596812909960785,25.682138406546294,0.9592919331998844
5.376274158340371,0.43329292861439334,26.113345241678832,0.9647806025234963
5.583658096870727,0.4420687424528247,26.544435341653934,0.9736295750343577
5.789890375585212,0.4492952882845543,26.93767431607183,0.9789068818591237
6.003266566209514,0.4599067755371013,27.313406531250077,0.9911261478258308
6.21638170679321,0.46362952427426346,27.64525586893142,0.9879351686331195
6.428949616378093,0.47306980061648596,27.97874235565464,0.9968983825512185
6.648943630849399,0.4839788122478727,28.307065928778716,1.0087724151979618
6.870875706215472,0.4886897460402291,28.610968531299243,1.007389046163113
7.087876843413933,0.4987077826965627,28.89082363936258,1.0168821650173612
7.300115875038991,0.5078876620664411,29.1247240154597,1.0245563947124923
7.5216563134669805,0.5162051749899699,29.383081901085177,1.0302936772314584
7.739233152770142,0.5211697792928122,29.56826095979325,1.0290264666497078
7.963240615862618,0.5325531172195265,29.767218724660964,1.0400351091714888
8.181051001550546,0.5386376234116917,29.928496234673307,1.0405190528735875
8.4022305392355,0.5483895905164129,30.0477825109798,1.0477581608414095
8.623185012135666,0.5503711269034081,30.187227304917812,1.0399426876309557
8.835121375276353,0.5558884558366107,30.33388391816378,1.0395782653134062
9.051746981761713,0.5668419265102163,30.401450987323262,1.049242582520533
9.272831082808745,0.5731194020134863,30.470663042350207,1.049342099994779
9.507797158670535,0.5857559514578707,30.56276818646917,1.0608188831598853
9.734400504837904,0.5899423729285599,30.571734855682436,1.0563850845177498
9.947801003926692,0.5967204495829249,30.594940640813245,1.0567005248540577
10.152265202745609,0.6000478960142761,30.621363414080946,1.051721255031998
10.364634069398287,0.6047764434891589,30.620402841696187,1.0494367618014055
10.597077602567886,0.6142428361961271,30.604973173701058,1.0545541319913232
10.81149349221942,0.6168342676140116,30.58669830983272,1.0475009410292218
11.02086677775543,0.6221883915599615,30.529288387439834,1.045597663940302
11.237378005268257,0.6301423310215247,30.466483855362167,1.0478311399988247
11.453718529083925,0.6379420884134437,30.395519998566407,1.0495018752755843
11.669136457226562,0.6459186585197647,30.289146233092946,1.0511448523469826
11.887140354556223,0.6495904768339162,30.181437776033043,1.0454765414009846
12.10519549422084,0.6552975583698147,30.044623311632517,1.043019641630085
12.334093282479506,0.6630457845568288,29.908048804060602,1.0433461903837473
12.54976895805101,0.6722306828731414,29.80473413321409,1.0460713182477437
12.76523164247657,0.6741785630932635,29.676644035706104,1.037986767716809
12.973695654936249,0.6792589406465783,29.506694816214488,1.0346591150545765
13.180639882068043,0.686368402424364,29.35184980411791,1.0342697255402131
13.417556548616737,0.6919694729070646,29.178862217217226,1.031219201282102
13.62668465935475,0.6979555915940042,28.981698916645396,1.028243094938292
13.854737349497045,0.7052405265296688,28.747743175573007,1.02698624665352
14.069851978007716,0.7074246145814139,28.540186928949282,1.0180062985817888
14.267747507313368,0.7179674118580155,28.30199081057858,1.0215831437561183
14.484066981905665,0.7212348395239626,28.091383610254244,1.014701093097312
14.699417964928566,0.7234531768444524,27.843274756411287,1.0062268034367499
14.912092189732359,0.7294716640348666,27.60893467690165,1.002928758177167
15.132754506312828,0.7348059520477109,27.36331543167406,0.9985939274603917
15.353451534449034,0.7421882446171846,27.10843356596206,0.9967948841561907
15.563719885450393,0.7492773027474932,26.828398472114458,0.9944252991555548
15.771034857082189,0.7491843979707249,26.559534997476412,0.9825531842482322
15.981250530729765,0.7568740520862581,26.26749063913816,0.9809596531138727
16.169559353888143,0.7631814643502093,25.978658416949475,0.977511956909019
16.366962123546998,0.7664380364017851,25.70646744612204,0.9704993840317967
16.581312916457332,0.7742517566978464,25.42494521562139,0.9690953096759437
16.785972951047004,0.7740408185792002,25.115724725929766,0.9572088785754668
16.986362827332247,0.7800173117493548,24.796098421715378,0.9528920088232488
17.181099713760805,0.7847889300521014,24.481231887812086,0.94706407224525
17.380273239534734,0.7891235230011385,24.154695539547216,0.9406840403168695
17.57135808228108,0.7981148994012728,23.836156647261245,0.9397971222156779
17.764535595880186,0.799343892034705,23.511013016520728,0.9298002649923125
17.9686331156271,0.8005217717578126,23.168217714234892,0.9195299062744566
18.14698532829967,0.8034583959883426,22.833541616426256,0.9112908670166429
18.35529771599823,0.8145519037473916,22.507911970719565,0.9123963745438971
18.55115532337926,0.8184290369263104,22.21363399255919,0.905381213466609
18.746711830177315,0.8192379531591014,21.883121658391648,0.8951736453273336
18.939794103675208,0.8264093623053277,21.56791755897302,0.8918009152521889
19.12191300949981,0.8305115062030398,21.230497491757284,0.8850974965633045
19.316909204060106,0.8383221128185409,20.894848016751375,0.8820909431154081
19.5139809691597,0.835806152874484,20.566950194360288,0.8680477734802742
19.705792992925964,0.8390796325156119,20.22699242653991,0.8601559881466123
19.889231699294168,0.8460070036560174,19.90266168093161,0.8560728684507992
20.068758685605776,0.8531182596303616,19.567034903149008,0.8522567199530687
20.25603721286166,0.8532921848637107,19.22609626723144,0.8412696129794568
20.436229593044448,0.8531922984292248,18.87139032416324,0.8298935201091252
20.651915210716723,0.8617074156742207,18.531113977430053,0.8266244591847132
20.834936892586963,0.8640973674938599,18.202211433759807,0.8174584839737272
21.010634800661386,0.8744539443022253,17.874103993528855,0.816276341726068
21.200823022178767,0.8718293819858149,17.536337843252763,0.8027625659260854
21.363590630568588,0.8792708133606372,17.208526560427313,0.7986844167232976
21.544499235210818,0.8817594221943588,16.887703896329793,0.7902127924498433
21.727326390273873,0.886395088686063,16.544690995470464,0.7833981701018499
21.922556661112722,0.8849684514287542,16.224909012284847,0.7710240497123662
22.081503158982812,0.8942191377068784,15.906517632896234,0.7683660558793904
22.2754109204456,0.8973600189440321,15.606528219650004,0.7605281452912463
22.45221785136681,0.9002235662709568,15.283268280716925,0.7522784663499922
22.612799901912094,0.8969532656513466,14.98225720418237,0.7391013579585911
22.799780179049176,0.901685431137615,14.665218351775572,0.7326465169453324
22.970061220382618,0.9105816503679115,14.3560484832975,0.7292361055033283
23.164437810279125,0.9106586787056725,14.054701909755336,0.7187083675103413
23.31415590935299,0.9150618685785961,13.769288135994637,0.7119756515570403
23.478020846474127,0.9229341720903735,13.488501464179752,0.7083655373718302
23.631182179947142,0.924093418167943,13.199517955061111,0.6994386697615971
23.799978558467142,0.9222033470926368,12.910619959406302,0.6881184117394169
23.931258816594756,0.9270387271580847,12.632759953348778,0.682028403238754
24.11580125488227,0.9312843617699065,12.359448549360517,0.67554004716966
24.25279223849453,0.9401617437525264,12.089931469499211,0.6722951808425038
24.402101393251368,0.9417684172075642,11.829139195506986,0.6640710193020416
24.548489821116394,0.9397760569090305,11.5691703858931,0.6534353756731155
24.724178375552,0.9451624253337849,11.310717048375237,0.6478409418863023
24.864201828309103,0.947367490381442,11.05917713815051,0.6400265831298122
24.97423629547463,0.9529525038419726,10.809978158447915,0.6349139329858409
25.100782460899385,0.9575589768395332,10.588150871271159,0.6295099007897502
25.24239621793902,0.9514158227723369,10.35015655778382,0.6170908295614819
25.36887303727186,0.9621835710586651,10.131821948856551,0.615662709736638
25.483982749121562,0.9573180243881243,9.90410483785541,0.6043397484739544
25.597915041583803,0.9594154302526793,9.676949643097773,0.5974723259553276
25.734559252040384,0.9607655166209066,9.456303515560364,0.5900442244086289
25.870979824742655,0.9616872812046927,9.251957546630804,0.5824693198756014
25.99237466939958,0.9681479860544281,9.05317458276119,0.5785527135667519
26.07658248305726,0.9740831884060962,8.855935234994313,0.5746028650988683
26.184194207282875,0.966232383730537,8.668848624398688,0.5627450516004353
26.33697096622873,0.9727527741713486,8.493549414163851,0.5593102879950086
26.476961217905565,0.9753450736683721,8.316676340467616,0.5535066163488904
26.605114636678408,0.9770603735682959,8.15509159696417,0.5474152288590899
26.727646002916753,0.9801456543813858,7.996050138155166,0.5424744046402556
26.826898382824055,0.9780988519928934,7.840535498626076,0.53493189934247
26.926230473352344,0.9894125766728422,7.688553820224397,0.5348485317619686
27.014716800890096,0.9879807445506819,7.540452086186038,0.52791413993483
27.113692214085084,0.9871838305882402,7.395252801842776,0.5215004946614076
27.23799931714824,0.984247350190621,7.25680618905835,0.5139561726370162
27.32989446675476,0.9876513279275771,7.1272761845775525,0.5099297545176718
27.440265247406444,0.9894407213587922,7.009195632579303,0.5054564588178702
27.55813243452345,0.9952011050414454,6.883923116847867,0.5029925100062961
27.661683578479867,1.0013004843148416,6.776108288468692,0.5007492380756068
27.744622385150375,1.0078581418560582,6.668056526511495,0.49915559874444976
27.84671145247412,0.9985222116994897,6.574381318030349,0.4899048406312356
27.965244326439734,0.9968954803026434,6.483926819430488,0.48473895270270045
28.074248174857754,1.0000994224721471,6.399416445126135,0.48202475058752736
28.163254930135704,1.009070349283071,6.321817442463146,0.4823848502758893
28.261959140533367,1.0040125317715523,6.250987790815647,0.4762892544185536
28.346927746825052,1.0097832499036423,6.179344690804376,0.4755040915657319
