$D^a [mM]$,$D^a [mM]$,$I_{islet}^a\ [pg/islet]$,$I_{islet}^a\ [pg/islet]$
0.5186960618708807,0.17135839805420935,3.0385706672099655,0.34404595717668823
0.5684722609764352,0.20084749494347115,4.072694441434734,0.47574096949571154
0.6395583307803197,0.2150725575099149,5.095466412544844,0.5690144561091249
0.727297250559057,0.22797370459921534,6.117351908495438,0.6397822970345276
0.8288931584838262,0.24470141338518356,7.116644786838194,0.7071570733766677
0.9403377153570479,0.2619869491443394,8.106721476190964,0.7663411425617818
1.0622314813087106,0.2771935536679549,9.086576095742231,0.812848728273924
1.1935766107161188,0.2948923245150524,10.050835484371753,0.8615295638298802
1.3319874240123015,0.3110953404632042,10.985508986730151,0.9017989008581881
1.4765335762854657,0.3292202478470032,11.912016237449821,0.9448408408478915
1.627612545903645,0.347721405406843,12.825391465347307,0.98701240901949
1.7843060383493108,0.3636058721226232,13.717579368854468,1.0199535648193758
1.9445126124723333,0.38084771339502416,14.576707327656358,1.0552376160506725
2.1100161012150807,0.3993704662936654,15.417612227625076,1.0926456131482756
2.2788187041129713,0.41421739588902196,16.23610820029455,1.1189105596456235
2.453004012570954,0.42929007407841857,17.019302214841304,1.1447844327239882
2.6310959326920997,0.4458698133838939,17.785492629482665,1.1734265499808545
2.8094772645762593,0.46373374405339224,18.528384615034486,1.204926018913859
2.9931683689922983,0.48207895862722455,19.260873516039315,1.2371275452471724
3.182549271253441,0.4943130852676199,19.97737166057917,1.2528149283912506
3.371179620330954,0.5087595164638284,20.678968019945746,1.2739173533501755
3.56231207133541,0.5268110022826639,21.34136736694287,1.303769029236241
3.7553531798600215,0.5415711178306211,21.97242945420396,1.3244623463544976
3.9546371084503575,0.5542423719718458,22.58132513131953,1.339294499690067
4.14973819813811,0.5669708851233511,23.14428312749749,1.3537400413998162
4.345802516745522,0.5791796960474053,23.720316811394564,1.3671778871202473
4.542431683985153,0.5937916577688984,24.283599776720507,1.386673657328543
4.749324553452701,0.6103128198579548,24.841740615465323,1.4101013446905555
4.953119660173035,0.618903615415702,25.34883947246787,1.4143867758877193
5.160143692757733,0.6332988501167304,25.798842677616538,1.431229664741785
5.366378424828069,0.6480420273863147,26.24550717307399,1.448000743162333
5.571770278239923,0.6604202773982767,26.68406467607115,1.459694557445906
5.780912605378108,0.6748024053984175,27.091186131938397,1.47560417268561
5.9950466011512615,0.6852017516563851,27.4940880970821,1.4822148782706905
6.205386019388156,0.6961893728855973,27.83285747145165,1.4895726406342729
6.4208829983932905,0.7079884380183599,28.147895100004316,1.4979438588999385
6.640576179541152,0.7240666768245075,28.465115149115423,1.5147067620099695
6.855615739657271,0.7329154255840361,28.74459949381782,1.516142515738463
7.075436922999817,0.7469961130984889,29.01587616895995,1.528193595828214
7.296782676745934,0.7595221563465497,29.2439239878969,1.536445292687915
7.513471120380327,0.7630181634102935,29.495003394443785,1.5265197514077733
7.733002333079395,0.7813650016680118,29.7162261498363,1.5468890945316394
7.950656034023919,0.7909283844973805,29.856675268693348,1.5487000344966186
8.168838893171879,0.8035001651841779,30.04574842661134,1.5560510350501635
8.389594787744873,0.8121425516671634,30.184544687335727,1.5559608755910304
8.597540276863011,0.8246882958421333,30.332767800296057,1.5635348447442208
8.82237323139725,0.8324973521072951,30.493904108822697,1.562469953189978
9.05280702420097,0.842637488942448,30.570056934050417,1.564585731073788
9.286229963293957,0.8585097126562484,30.674901240173984,1.576211242712055
9.503984589235488,0.869257780918497,30.74274125329984,1.5786561504755365
9.721870113649803,0.875843723334646,30.796791897095762,1.5739389231341976
9.936299456051884,0.88621191588017,30.84914914034753,1.5762737292944224
10.159209673193617,0.8970091812017544,30.852792241698427,1.5788092406106087
10.37025304969602,0.897607821560415,30.859909397438553,1.5631168263460502
10.602109810812909,0.9137781659926861,30.870306992638046,1.5747554286825396
10.829809877075208,0.9230415314669459,30.849470389903725,1.5735453294563804
11.053108622787649,0.9290867839622771,30.798591584006942,1.5665247562399562
11.262528533085343,0.9432926235299672,30.749437734430607,1.5735577691143063
11.470009173278765,0.9525941835613991,30.670475048637165,1.5727273279029723
11.691624953925755,0.9635381830386774,30.542877892604043,1.573585937596604
11.909571743470096,0.9790770725117696,30.47331649015266,1.58139517538716
12.131834370014912,0.9908303227439117,30.35127999304381,1.5831864212623195
12.361593256848803,0.9952250003316641,30.20692057460179,1.5721547613386004
12.59080580614067,0.9933296084028262,30.069341884574623,1.550997680567677
12.796370459128497,1.0075645289796782,29.924001543994564,1.5559356470244734
13.007227502434704,1.0191092190425124,29.80285343475769,1.5573161799268869
13.232847067195031,1.022043786193679,29.661461540330755,1.54536383637089
13.455924731836557,1.0383877898240865,29.453636170959516,1.5526335027374907
13.677833341036015,1.0432677490886304,29.275521719855792,1.541987673632778
13.912024772562374,1.0493505333198878,29.07146301213777,1.5331292170284316
14.128538367918066,1.0612790950304172,28.87479943811302,1.532734355152196
14.334639391680767,1.0667447714498415,28.655562190487164,1.5234959904831613
14.55524435687629,1.0765033904400056,28.41655518962799,1.5200615168639213
14.785116092955432,1.0860936106889025,28.220168654058238,1.5160296982672634
14.99468761363522,1.1002975795918237,27.972755765835906,1.5184874428266502
15.204213965675274,1.1056150322133949,27.710065125981586,1.5083143459033468
15.422066789577586,1.1140224042318527,27.437737803825257,1.5019699300292824
15.637642368139035,1.1184284296308549,27.159641162740048,1.4899066177262692
15.842590890361771,1.1291833047720847,26.890068700396245,1.4866353359089124
16.05264155369606,1.136676015043782,26.610288125871747,1.4790687953697972
16.273180883397544,1.1406644691092025,26.306893486157968,1.466460356457963
16.486439706609726,1.149298968502384,26.00175709629331,1.4593615511788847
16.682526951535046,1.1527480839815027,25.69545798517478,1.445981730122808
16.889228293650444,1.15449097761923,25.367354121883622,1.4307189127243307
17.091328637586443,1.172091227888783,25.04265296724965,1.434661431120034
17.289455090168474,1.1790563687658129,24.708831083453248,1.4253020923748148
17.488762565417645,1.1869058911003016,24.395527021998898,1.4172272060555493
17.69055279744098,1.1949540420953935,24.07926334723124,1.4095259996343026
17.897803120100267,1.1939414884763477,23.775796863531838,1.3911994819056803
18.095290255309944,1.2044589732649518,23.448663426357726,1.3864200800939366
18.260280200345562,1.2096564240752805,23.145168045598172,1.3759457459740683
18.470336311627342,1.2140760670478454,22.820823325614043,1.3647419504823897
18.663291530575428,1.2253000726589367,22.48715421983084,1.360161949373876
18.879887021340483,1.2352972393284816,22.138553116673318,1.353654828088344
19.085293490053655,1.2441886382157168,21.82064142186144,1.3455825902148955
19.270120188347704,1.2380972829379968,21.500333102364372,1.3222973826978786
19.47465753362236,1.2513267515223774,21.18385755709374,1.3199649803058529
19.66101539511945,1.2594060779267708,20.817264417287582,1.3113725914877135
19.856244179016958,1.2647388000555853,20.479373094918607,1.2995572220511704
20.01890289451263,1.2730840079716403,20.13237240008091,1.29130807023485
20.21666157566038,1.2736972880496238,19.812169192497617,1.275510789115121
20.40333306647833,1.280971821970062,19.47979286740315,1.266337102636308
20.608192729925896,1.2903427459772197,19.129299590130604,1.2585925186548816
20.793087130545494,1.2883568905318121,18.799766092079402,1.2395775956755968
20.960338879840013,1.3038750320164532,18.46393521498418,1.2382361053764843
21.145655622252196,1.3025767856867327,18.15468899751293,1.2209944340451866
21.36741613692676,1.3105867713297072,17.82409102793105,1.212131416008743
21.576426072709015,1.3138969625896684,17.508679459839374,1.19822979979211
21.752513171959755,1.3280725531863267,17.196111299422526,1.1948893855815648
21.947449058148006,1.3312767536227748,16.885535816795716,1.1819154765524256
22.13138351213342,1.3359125547454773,16.591825414793348,1.1703683609297832
22.33584484977197,1.342490234392851,16.28007198283326,1.1604185713484312
22.52030541527843,1.3442021818447831,15.981113200031759,1.1460813278494137
22.690665628177012,1.360018183187016,15.669229810876827,1.1440623580893927
22.874213536362284,1.3618442300480664,15.361861419889609,1.1299322720838918
23.042910287873735,1.362919086600306,15.058466416742016,1.1153364385997364
23.188181567706177,1.370868281880879,14.75046072764904,1.106720808398196
23.365015172764206,1.3742706668653137,14.467357684588459,1.094582517511699
23.505553141512763,1.3724058724628319,14.174065266932985,1.078594968494722
23.67398935865865,1.3914014497964746,13.88612255225909,1.0789352445586684
23.839101332905663,1.3786236984187241,13.62079455760353,1.0545916198977465
24.011005480395987,1.3975138623717709,13.341588010050547,1.0548220247861428
24.156852566179914,1.397027338661986,13.078386135731332,1.0402323721226994
24.332471114473805,1.3982894969511224,12.824798548296558,1.0275200227129924
24.51841219840233,1.4137061819664856,12.555647886450055,1.0246902921423249
24.690186177424977,1.4132955288066298,12.29465896915288,1.0099557077137178
24.84366991614539,1.41522705372793,12.051013091000593,0.9976317474105555
24.975802656215716,1.4147703018549,11.813236060819307,0.9844382829259068
25.131576689930867,1.4252742048665725,11.569816588323627,0.9789629860579229
25.269927665095928,1.4256001658475865,11.33386955234154,0.9662673429529992
25.444352905337933,1.4411460823466955,11.112316240165752,0.96404743138258
25.60315716228668,1.4361895620154361,10.893947583610617,0.9481295360398705
25.72339466196677,1.4355534225112152,10.684721732340298,0.9357813673444486
25.878740849795335,1.4467864990698631,10.479235651895628,0.9315500854058355
26.017737199967854,1.4509188865340235,10.296802658941843,0.9228779392622402
26.159757815301862,1.4618971946411548,10.099491540656242,0.9188411780558768
26.285879942900003,1.4585366770149821,9.906367275774546,0.9056009287764153
26.451259996555827,1.447635706837101,9.730478470549036,0.8879967580006544
26.568673526163934,1.462421874969968,9.565776788023136,0.8868306121373081
26.682983124375227,1.4661621124607784,9.399096050095725,0.8794218463811941
26.821582376499986,1.4703875670162936,9.238293817142639,0.8722476265872765
26.94612661645093,1.4704963802428757,9.105659422538308,0.8631506293977328
27.089249312890406,1.4844333360534805,8.962726407670493,0.8626393895162382
27.219030345897504,1.4839093895346152,8.83886186662646,0.8536840647647346
27.349924667388823,1.4897037965712892,8.710450018475555,0.848884879754095
27.473659001166443,1.4843783571527664,8.592584730529866,0.837856923011568
27.604765365439793,1.4978777340205716,8.485531629237682,0.8379467349695167
27.725691758641172,1.4962224593065327,8.37655345991736,0.8297542957793974
27.828558967921712,1.5002620801637103,8.285192190417023,0.8252797701164174
27.96148291790367,1.4933203932720671,8.190486688084942,0.8150688940806171
28.09333764642695,1.5092925576030267,8.102553495438558,0.8172759931506919
28.189086086620748,1.5097749093012762,8.029055546421379,0.811669648743738
28.30362099925599,1.5092882756482289,7.970337087139317,0.806439734829243
28.401473622970414,1.510853544790779,7.898709379920813,0.8024553782653262
28.50884982990831,1.5145858785021091,7.842219678700162,0.7997055394737032
28.637287420815333,1.524361026039242,7.789526754376227,0.800357039613694
28.768685551027485,1.5297195834083137,7.739179582665192,0.7986308719343782
28.905518947242655,1.5233183186239772,7.706485960144681,0.7911790826704996
29.024492694051595,1.5222456697199096,7.690954671942358,0.7874785096305513
29.1230729310486,1.5186793383577786,7.672082540759653,0.7831459312318272
